2438,2438,2438,2455,2455,2384,2384,2384,2418,2418,2415,2415,2415,2398,2398,2388,2388,2388,2340,2340,2340,2340,2340,2399,2399,2353,2353,2353,2318,2318,2324,2324,2324,2283,2283,2333,2333,2333,2326,2326,2274,2274,2274,2309,2309,2224,2224,2224,2288,2288,2268,2268,2268,2250,2250,2251,2251,2251,2166,2166,2189,2189,2189,2212,2212,2141,2141,2141,2121,2121,2175,2175,2175,2099,2099,2098,2098,2098,2146,2146,2068,2068,2068,2116,2116,2051,2051,2051,2112,2112,2069,2069,2069,2045,2045,2031,2031,2031,2081,2081,2083,2083,2083,2060,2060,2019,2019,2019,2063,2063,2004,2004,2004,1996,1996,2035,2035,2035,1967,1967,2034,2034,2034,1975,1975,1965,1965,1965,1978,1978,2015,2015,2015,1974,1974,2010,2010,2010,1946,1946,2003,2003,2003,1951,1951,1963,1963,1963,1930,1930,1986,1986,1986,1921,1921,1929,1929,1920,1920,1920,1925,1925,1922,1922,1922,1981,1981,1939,1939,1939,1969,1969,1915,1915,1915,1961,1961,1902,1902,1902,1948,1948,1903,1903,1903,1926,1926,1903,1903,1903,1902,1902,1945,1945,1945,1929,1929,1943,1943,1943,1934,1934,1875,1875,1875,1895,1895,1865,1865,1865,1861,1861,1872,1872,1872,1879,1879,1844,1844,1844,1881,1881,1898,1898,1898,1870,1870,1906,1906,1906,1887,1887,1887,1887,1887,1843,1843,1826,1826,1826,1891,1891,1849,1849,1849,1852,1852,1878,1878,1878,1810,1810,1801,1801,1801,1878,1878,1799,1799,1799,1812,1812,1843,1843,1843,1809,1809,1844,1844,1844,1782,1782,1820,1820,1820,1776,1776,1825,1825,1825,1835,1835,1842,1842,1842,1799,1799,1830,1830,1830,1798,1798,1764,1764,1764,1830,1830,1813,1813,1813,1817,1817,1812,1812,1812,1739,1739,1775,1775,1775,1744,1744,1782,1782,1782,1750,1750,1736,1736,1736,1745,1745,1764,1764,1764,1780,1780,1776,1776,1776,1792,1792,1788,1788,1788,1774,1774,1721,1721,1721,1715,1715,1746,1746,1746,1778,1778,1718,1718,1718,1721,1721,1765,1765,1765,1715,1715,1747,1747,1727,1727,1727,1707,1707,1759,1759,1759,1697,1697,1732,1732,1732,1697,1697,1730,1730,1730,1760,1760,1760,1760,1760,1739,1739,1688,1688,1688,1759,1759,1738,1738,1738,1706,1706,1690,1690,1690,1730,1730,1742,1742,1742,1695,1695,1720,1720,1720,1735,1735,1749,1749,1749,1698,1698,1725,1725,1725,1726,1726,1747,1747,1747,1682,1682,1703,1703,1703,1747,1747,1744,1744,1744,1750,1750,1702,1702,1702,1760,1760,1739,1739,1739,1720,1720,1774,1774,1774,1727,1727,1777,1777,1777,1804,1804,1796,1796,1796,1752,1752,1796,1796,1796,1853,1853,1805,1805,1805,1824,1824,1905,1905,1905,1934,1934,1937,1937,1937,1977,1977,1979,1979,1979,2008,2008,1984,1984,1984,2071,2071,2059,2059,2059,2067,2067,2126,2126,2126,2112,2112,2128,2128,2128,2167,2167,2180,2180,2180,2200,2200,2237,2237,2237,2287,2287,2328,2328,2328,2350,2350,2317,2317,2317,2314,2314,2332,2332,2332,2359,2359,2399,2399,2399,2384,2384,2454,2454,2454,2474,2474,2493,2493,2493,2497,2497,2468,2468,2468,2524,2524,2478,2478,2478,2534,2534,2499,2499,2499,2549,2549,2547,2547,2547,2533,2533,2510,2510,2572,2572,2572,2556,2556,2540,2540,2540,2587,2587,2577,2577,2577,2584,2584,2554,2554,2554,2512,2512,2518,2518,2518,2564,2564,2570,2570,2570,2516,2516,2553,2553,2553,2560,2560,2566,2566,2566,2487,2487,2487,2487,2487,2484,2484,2484,2484,2484,2482,2482,2529,2529,2529,2475,2475,2460,2460,2460,2471,2471,2432,2432,2432,2454,2454,2489,2489,2489,2479,2479,2439,2439,2439,2392,2392,2432,2432,2432,2443,2443,2356,2356,2356,2352,2352,2382,2382,2382,2321,2321,2376,2376,2376,2306,2306,2354,2354,2354,2278,2278,2287,2287,2287,2270,2270,2295,2295,2295,2274,2274,2254,2254,2254,2263,2263,2252,2252,2252,2196,2196,2206,2206,2206,2164,2164,2151,2151,2151,2143,2143,2142,2142,2142,2122,2122,2141,2141,2141,2136,2136,2120,2120,2120,2106,2106,2162,2162,2162,2097,2097,2128,2128,2128,2120,2120,2096,2096,2096,2056,2056,2090,2090,2090,2047,2047,2099,2099,2099,2031,2031,2022,2022,2022,2031,2031,2006,2006,2006,2066,2066,2037,2037,2037,2028,2028,2015,2015,2015,2059,2059,2036,2036,2036,2008,2008,2002,2002,2002,2004,2004,2054,2054,2059,2059,2059,2031,2031,2002,2002,2002,1980,1980,2044,2044,2044,1987,1987,2027,2027,2027,1992,1992,2022,2022,2022,1966,1966,1979,1979,1979,1963,1963,1987,1987,1987,1966,1966,1969,1969,1969,1959,1959,2019,2019,2019,1975,1975,1942,1942,1942,1994,1994,1964,1964,1964,1978,1978,2001,2001,2001,1921,1921,1937,1937,1937,1937,1937,1998,1998,1998,1936,1936,1930,1930,1930,1951,1951,1968,1968,1968,1980,1980,1915,1915,1915,1959,1959,1896,1896,1896,1893,1893,1961,1961,1961,1883,1883,1933,1933,1933,1940,1940,1885,1885,1885,1871,1871,1935,1935,1935,1878,1878,1910,1910,1910,1933,1933,1868,1868,1868,1922,1922,1883,1883,1883,1908,1908,1844,1844,1844,1851,1851,1851,1851,1851,1898,1898,1876,1876,1876,1887,1887,1821,1821,1821,1868,1868,1833,1833,1833,1868,1868,1878,1878,1878,1809,1809,1857,1857,1857,1791,1791,1792,1792,1792,1860,1860,1845,1845,1845,1829,1829,1821,1821,1821,1822,1822,1818,1818,1818,1831,1831,1826,1826,1826,1759,1759,1750,1750,1750,1737,1737,1753,1753,1753,1811,1811,1800,1800,1800,1809,1809,1731,1731,1779,1779,1779,1730,1730,1802,1802,1802,1764,1764,1725,1725,1725,1773,1773,1722,1722,1722,1783,1783,1785,1785,1785,1775,1775,1758,1758,1758,1747,1747,1735,1735,1735,1771,1771,1775,1775,1775,1798,1798,1735,1735,1735,1739,1739,1731,1731,1731,1789,1789,1719,1719,1719,1722,1722,1729,1729,1729,1731,1731,1723,1723,1723,1788,1788,1794,1794,1794,1723,1723,1721,1721,1721,1751,1751,1792,1792,1792,1791,1791,1742,1742,1742,1743,1743,1762,1762,1762,1845,1845,1789,1789,1789,1837,1837,1806,1806,1806,1836,1836,1841,1841,1841,1880,1880,1872,1872,1872,1934,1934,1895,1895,1895,1939,1939,1943,1943,1943,1959,1959,2058,2058,2058,2051,2051,2089,2089,2089,2116,2116,2099,2099,2099,2117,2117,2142,2142,2142,2210,2210,2227,2227,2227,2252,2252,2223,2223,2223,2255,2255,2250,2250,2250,2270,2270,2289,2289,2289,2366,2366,2339,2339,2339,2417,2417,2415,2415,2415,2407,2407,2419,2419,2419,2401,2401,2481,2481,2481,2493,2493,2499,2499,2499,2516,2516,2468,2468,2468,2507,2507,2496,2496,2496,2523,2523,2513,2513,2513,2540,2540,2492,2492,2492,2572,2572,2525,2525,2537,2537,2537,2511,2511,2510,2510,2510,2535,2535,2497,2497,2497,2566,2566,2499,2499,2499,2539,2539,2514,2514,2514,2539,2539,2481,2481,2481,2532,2532,2473,2473,2473,2496,2496,2516,2516,2516,2477,2477,2440,2440,2440,2439,2439,2467,2467,2467,2462,2462,2475,2475,2475,2455,2455,2399,2399,2399,2448,2448,2422,2422,2422,2414,2414,2352,2352,2352,2396,2396,2318,2318,2318,2323,2323,2371,2371,2371,2346,2346,2309,2309,2309,2310,2310,2265,2265,2265,2316,2316,2230,2230,2230,2225,2225,2215,2215,2215,2264,2264,2251,2251,2251,2217,2217,2231,2231,2231,2223,2223,2147,2147,2147,2181,2181,2132,2132,2132,2107,2107,2136,2136,2136,2155,2155,2087,2087,2087,2121,2121,2059,2059,2059,2115,2115,2056,2056,2056,2118,2118,2050,2050,2050,2031,2031,2092,2092,2092,2084,2084,2019,2019,2019,2064,2064,2008,2008,2008,2000,2000,2066,2066,2066,2066,2066,2010,2010,2010,2042,2042,2056,2056,2056,1984,1984,2050,2050,2050,2025,2025,2020,2020,2020,1970,1970,1976,1976,1976,2042,2042,1965,1965,1965,2022,2022,2022,2022,2022,1974,1974,2036,2036,2027,2027,2027,1990,1990,2006,2006,2006,1996,1996,1991,1991,1991,1995,1995,1956,1956,1956,1953,1953,2011,2011,2011,1988,1988,1976,1976,1976,1935,1935,1937,1937,1937,1997,1997,1987,1987,1987,1923,1923,1988,1988,1988,1959,1959,1924,1924,1924,1938,1938,1900,1900,1900,1900,1900,1910,1910,1910,1938,1938,1894,1894,1894,1935,1935,1954,1954,1954,1915,1915,1912,1912,1912,1903,1903,1929,1929,1929,1866,1866,1880,1880,1880,1904,1904,1932,1932,1932,1887,1887,1922,1922,1922,1913,1913,1861,1861,1861,1846,1846,1879,1879,1879,1836,1836,1852,1852,1852,1841,1841,1911,1911,1911,1902,1902,1879,1879,1879,1808,1808,1867,1867,1867,1836,1836,1868,1868,1868,1870,1870,1805,1805,1805,1850,1850,1844,1844,1844,1852,1852,1781,1781,1781,1794,1794,1828,1828,1828,1792,1792,1800,1800,1800,1776,1776,1773,1773,1773,1823,1823,1795,1795,1795,1825,1825,1805,1805,1805,1817,1817,1814,1814,1814,1770,1770,1804,1804,1804,1797,1797,1752,1752,1752,1742,1742,1729,1729,1729,1737,1737,1793,1793,1793,1740,1740,1744,1744,1744,1744,1744,1752,1752,1765,1765,1765,1727,1727,1721,1721,1721,1784,1784,1724,1724,1724,1729,1729,1734,1734,1734,1756,1756,1728,1728,1728,1715,1715,1728,1728,1728,1705,1705,1724,1724,1724,1711,1711,1754,1754,1754,1716,1716,1740,1740,1740,1774,1774,1774,1774,1774,1701,1701,1702,1702,1702,1762,1762,1736,1736,1736,1773,1773,1706,1706,1706,1735,1735,1740,1740,1740,1776,1776,1735,1735,1735,1696,1696,1738,1738,1738,1761,1761,1732,1732,1732,1734,1734,1788,1788,1788,1745,1745,1822,1822,1822,1814,1814,1849,1849,1849,1877,1877,1881,1881,1881,1899,1899,1865,1865,1865,1897,1897,1911,1911,1911,1982,1982,1984,1984,1984,2041,2041,2020,2020,2020,2088,2088,2107,2107,2107,2072,2072,2106,2106,2106,2111,2111,2127,2127,2127,2211,2211,2218,2218,2218,2213,2213,2254,2254,2254,2237,2237,2299,2299,2299,2275,2275,2292,2292,2292,2372,2372,2327,2327,2327,2410,2410,2337,2337,2337,2422,2422,2452,2452,2452,2457,2457,2471,2471,2471,2448,2448,2440,2440,2440,2479,2479,2435,2435,2435,2499,2499,2500,2500,2500,2450,2450,2470,2470,2470,2472,2472,2466,2466,2466,2482,2482,2482,2482,2518,2518,2518,2489,2489,2515,2515,2515,2480,2480,2420,2420,2420,2430,2430,2467,2467,2467,2464,2464,2426,2426,2426,2450,2450,2438,2438,2438,2422,2422,2444,2444,2444,2442,2442,2443,2443,2443,2429,2429,2358,2358,2358,2370,2370,2337,2337,2337,2376,2376,2324,2324,2324,2319,2319,2292,2292,2292,2323,2323,2302,2302,2302,2263,2263,2247,2247,2247,2264,2264,2287,2287,2287,2280,2280,2199,2199,2199,2245,2245,2191,2191,2191,2164,2164,2219,2219,2219,2176,2176,2138,2138,2138,2172,2172,2135,2135,2135,2106,2106,2089,2089,2089,2074,2074,2076,2076,2076,2043,2043,2091,2091,2091,2054,2054,2058,2058,2058,2067,2067,2016,2016,2016,2027,2027,2066,2066,2066,2032,2032,2058,2058,2058,1989,1989,1973,1973,1973,1966,1966,1959,1959,1959,1992,1992,2024,2024,2024,1999,1999,2013,2013,2013,1994,1994,1972,1972,1972,1932,1932,2006,2006,2006,1990,1990,1986,1986,1986,1925,1925,1989,1989,1989,1966,1966,1933,1933,1933,1922,1922,1985,1985,1985,1937,1937,1966,1966,1966,1965,1965,1982,1982,1982,1951,1951,1907,1907,1907,1927,1927,1932,1932,1929,1929,1929,1947,1947,1899,1899,1899,1950,1950,1908,1908,1908,1882,1882,1915,1915,1915,1917,1917,1936,1936,1936,1892,1892,1929,1929,1929,1906,1906,1934,1934,1934,1902,1902,1859,1859,1859,1855,1855,1867,1867,1867,1850,1850,1837,1837,1837,1903,1903,1833,1833,1833,1900,1900,1882,1882,1882,1827,1827,1825,1825,1825,1855,1855,1832,1832,1832,1876,1876,1811,1811,1811,1873,1873,1825,1825,1825,1828,1828,1864,1864,1864,1863,1863,1811,1811,1811,1795,1795,1790,1790,1790,1787,1787,1831,1831,1831,1776,1776,1766,1766,1766,1833,1833,1827,1827,1827,1754,1754
1973,1973,1990,1990,1979,1979,1979,1956,1956,1965,1965,1965,1979,1979,1973,1973,1973,1958,1958,1954,1954,1954,1985,1985,1957,1957,1957,1979,1979,1957,1957,1957,1975,1975,1945,1945,1959,1959,1959,1970,1970,1946,1946,1946,1965,1965,1944,1944,1944,1962,1962,1981,1981,1981,1968,1968,1981,1981,1981,1961,1961,1970,1970,1970,1960,1960,1968,1968,1968,1973,1973,1959,1959,1959,1956,1956,1969,1969,1969,1978,1978,1968,1968,1968,1958,1958,1969,1969,1969,1956,1956,1959,1959,1959,1932,1932,1951,1951,1951,1963,1963,1957,1957,1957,1973,1973,1968,1968,1968,1946,1946,1952,1952,1952,1950,1950,1934,1934,1934,1967,1967,1947,1947,1947,1966,1966,1976,1976,1976,1983,1983,1954,1954,1954,1960,1960,1945,1945,1945,1946,1946,1959,1959,1959,1959,1959,1957,1957,1957,1953,1953,1941,1941,1941,1951,1951,1950,1950,1950,1959,1959,1937,1937,1937,1948,1948,1939,1939,1939,1955,1955,1939,1939,1939,1964,1964,1942,1942,1942,1943,1943,1932,1932,1932,1973,1973,1958,1958,1958,1939,1939,1943,1943,1943,1964,1964,1955,1955,1955,1957,1957,1950,1950,1950,1952,1952,1939,1939,1939,1929,1929,1944,1944,1944,1929,1929,1942,1942,1942,1952,1952,1946,1946,1946,1924,1924,1934,1934,1934,1932,1932,1940,1940,1940,1936,1936,1933,1933,1939,1939,1939,1916,1916,1913,1913,1913,1933,1933,1930,1930,1930,1921,1921,1929,1929,1929,1932,1932,1937,1937,1937,1920,1920,1962,1962,1962,1930,1930,1935,1935,1935,1942,1942,1926,1926,1926,1904,1904,1950,1950,1950,1945,1945,1945,1945,1945,1933,1933,1925,1925,1925,1906,1906,1926,1926,1926,1923,1923,1926,1926,1926,1954,1954,1928,1928,1928,1928,1928,1936,1936,1936,1920,1920,1939,1939,1939,1958,1958,1957,1957,1957,1975,1975,1964,1964,1964,1979,1979,1972,1972,1972,1975,1975,1975,1975,1975,1974,1974,1980,1980,1980,1994,1994,2013,2013,2013,1981,1981,2023,2023,2023,2005,2005,2018,2018,2018,2013,2013,2024,2024,2024,2038,2038,2044,2044,2044,2043,2043,2020,2020,2020,2070,2070,2071,2071,2071,2071,2071,2046,2046,2046,2069,2069,2053,2053,2053,2039,2039,2042,2042,2042,2079,2079,2071,2071,2071,2082,2082,2071,2071,2071,2086,2086,2077,2077,2077,2065,2065,2072,2072,2072,2064,2064,2072,2072,2072,2091,2091,2063,2063,2063,2078,2078,2064,2064,2064,2083,2083,2078,2078,2078,2089,2089,2109,2109,2109,2068,2068,2066,2066,2066,2067,2067,2076,2076,2086,2086,2086,2100,2100,2072,2072,2072,2071,2071,2094,2094,2094,2084,2084,2100,2100,2100,2094,2094,2082,2082,2082,2064,2064,2091,2091,2091,2110,2110,2086,2086,2086,2069,2069,2067,2067,2067,2071,2071,2067,2067,2067,2081,2081,2074,2074,2074,2062,2062,2068,2068,2068,2085,2085,2076,2076,2076,2078,2078,2065,2065,2065,2083,2083,2080,2080,2080,2072,2072,2063,2063,2063,2062,2062,2071,2071,2071,2039,2039,2050,2050,2050,2041,2041,2064,2064,2064,2035,2035,2046,2046,2046,2040,2040,2035,2035,2035,2045,2045,2056,2056,2056,2023,2023,2067,2067,2067,2019,2019,2042,2042,2042,2039,2039,2052,2052,2052,2031,2031,2021,2021,2021,2026,2026,1995,1995,1995,2016,2016,2020,2020,2020,2014,2014,2011,2011,2011,2008,2008,2033,2033,2033,2020,2020,1984,1984,1984,1999,1999,2008,2008,2008,2009,2009,1988,1988,1988,1976,1976,2018,2018,2018,2011,2011,2024,2024,2024,1994,1994,1996,1996,1996,2013,2013,1997,1997,1997,2006,2006,2006,2006,2006,2019,2019,1991,1991,1991,2030,2030,1983,1983,1983,1988,1988,1999,1999,1999,2017,2017,1990,1990,2007,2007,2007,2002,2002,2003,2003,2003,2020,2020,2000,2000,2000,2005,2005,1984,1984,1984,2000,2000,1993,1993,1993,1993,1993,1994,1994,1994,2004,2004,2003,2003,2003,2013,2013,1993,1993,1993,1998,1998,1994,1994,1994,1991,1991,1987,1987,1987,1973,1973,2002,2002,2002,2016,2016,1993,1993,1993,1995,1995,1990,1990,1990,1992,1992,1969,1969,1969,1966,1966,1999,1999,1999,1982,1982,1996,1996,1996,1976,1976,2008,2008,2008,1974,1974,1991,1991,1991,1966,1966,1988,1988,1988,1967,1967,1982,1982,1982,1974,1974,1963,1963,1963,1994,1994,1985,1985,1985,1968,1968,1968,1968,1968,1966,1966,1986,1986,1986,1981,1981,1993,1993,1993,1970,1970,1989,1989,1989,1956,1956,1960,1960,1960,1965,1965,1992,1992,1992,1962,1962,1969,1969,1969,1958,1958,1957,1957,1957,1953,1953,1956,1956,1956,1952,1952,1955,1955,1955,1966,1966,1971,1971,1971,1972,1972,1999,1999,1999,1979,1979,2001,2001,2001,1967,1967,1966,1966,1966,1980,1980,1962,1962,1962,1968,1968,1960,1960,1960,1959,1959,1971,1971,1971,1968,1968,1976,1976,1976,1945,1945,1972,1972,1972,1964,1964,1968,1968,1970,1970,1970,1960,1960,1968,1968,1968,1962,1962,1951,1951,1951,1946,1946,1950,1950,1950,1959,1959,1957,1957,1957,1949,1949,1971,1971,1971,1966,1966,1962,1962,1962,1977,1977,1966,1966,1966,1955,1955,1946,1946,1946,1963,1963,1940,1940,1940,1951,1951,1955,1955,1955,1963,1963,1939,1939,1939,1943,1943,1952,1952,1952,1940,1940,1950,1950,1950,1978,1978,1952,1952,1952,1972,1972,1953,1953,1953,1958,1958,1959,1959,1959,1972,1972,1955,1955,1955,1971,1971,1968,1968,1968,1944,1944,1943,1943,1943,1963,1963,1968,1968,1968,1938,1938,1950,1950,1950,1965,1965,1951,1951,1951,1963,1963,1937,1937,1937,1951,1951,1952,1952,1952,1951,1951,1941,1941,1941,1960,1960,1954,1954,1954,1958,1958,1964,1964,1964,1944,1944,1934,1934,1934,1936,1936,1943,1943,1943,1952,1952,1939,1939,1939,1945,1945,1940,1940,1940,1939,1939,1931,1931,1931,1920,1920,1953,1953,1953,1953,1953,1969,1969,1969,1941,1941,1944,1944,1944,1928,1928,1948,1948,1948,1936,1936,1947,1947,1947,1931,1931,1944,1944,1944,1957,1957,1930,1930,1930,1938,1938,1949,1949,1942,1942,1942,1953,1953,1939,1939,1939,1949,1949,1945,1945,1945,1936,1936,1944,1944,1944,1964,1964,1954,1954,1954,1969,1969,1962,1962,1962,1955,1955,1961,1961,1961,1966,1966,1961,1961,1961,1974,1974,1947,1947,1947,1984,1984,1994,1994,1994,2003,2003,1977,1977,1977,2009,2009,1996,1996,1996,2027,2027,2005,2005,2005,1998,1998,1998,1998,1998,2020,2020,2026,2026,2026,2041,2041,2029,2029,2029,2040,2040,2046,2046,2046,2033,2033,2067,2067,2067,2056,2056,2061,2061,2061,2066,2066,2067,2067,2067,2059,2059,2085,2085,2085,2083,2083,2068,2068,2068,2061,2061,2068,2068,2068,2082,2082,2088,2088,2088,2097,2097,2075,2075,2075,2084,2084,2098,2098,2098,2099,2099,2100,2100,2100,2095,2095,2076,2076,2076,2110,2110,2085,2085,2085,2108,2108,2108,2108,2108,2085,2085,2105,2105,2105,2095,2095,2092,2092,2092,2103,2103,2107,2107,2107,2096,2096,2094,2094,2094,2086,2086,2092,2092,2092,2091,2091,2109,2109,2109,2102,2102,2093,2093,2093,2099,2099,2084,2084,2084,2111,2111,2103,2103,2103,2106,2106,2103,2103,2103,2111,2111,2090,2090,2095,2095,2095,2118,2118,2082,2082,2082,2118,2118,2106,2106,2106,2085,2085,2097,2097,2097,2094,2094,2083,2083,2083,2089,2089,2079,2079,2079,2078,2078,2105,2105,2105,2056,2056,2072,2072,2072,2068,2068,2089,2089,2089,2082,2082,2082,2082,2082,2069,2069,2067,2067,2067,2066,2066,2043,2043,2043,2068,2068,2039,2039,2039,2054,2054,2073,2073,2073,2054,2054,2044,2044,2044,2036,2036,2056,2056,2056,2027,2027,2066,2066,2066,2026,2026,2036,2036,2036,2039,2039,2032,2032,2032,2016,2016,2011,2011,2011,2047,2047,2040,2040,2040,2008,2008,2042,2042,2042,2025,2025,2023,2023,2023,2034,2034,2035,2035,2035,2009,2009,2029,2029,2029,2021,2021,2016,2016,2016,1996,1996,2011,2011,2011,2001,2001,2032,2032,2032,2000,2000,2024,2024,2024,2004,2004,2008,2008,2008,2013,2013,1989,1989,1989,2016,2016,2039,2039,2039,2016,2016,2023,2023,2023,1996,1996,2005,2005,2005,2010,2010,2027,2027,2027,2021,2021,2013,2013,2013,2006,2006,2015,2015,2015,2011,2011,2009,2009,2009,1984,1984,1998,1998,1998,1993,1993,1989,1989,1989,2007,2007,1982,1982,1982,1994,1994,2027,2027,1998,1998,1998,2008,2008,1999,1999,1999,1988,1988,2006,2006,2006,2010,2010,2022,2022,2022,2009,2009,2008,2008,2008,1994,1994,2004,2004,2004,2000,2000,2006,2006,2006,2009,2009,1990,1990,1990,1999,1999,2006,2006,2006,2002,2002,1987,1987,1987,2010,2010,2011,2011,2011,1998,1998,2012,2012,2012,2000,2000,2000,2000,2000,1972,1972,2014,2014,2014,1975,1975,1972,1972,1972,1960,1960,1979,1979,1979,1999,1999,1991,1991,1991,1979,1979,1979,1979,1979,1992,1992,1990,1990,1990,1980,1980,1973,1973,1973,1983,1983,1997,1997,1997,1996,1996,1967,1967,1967,1998,1998,1963,1963,1963,1986,1986,1984,1984,1984,1958,1958,2006,2006,2006,1966,1966,1966,1966,1966,1979,1979,1971,1971,1971,1986,1986,1961,1961,1961,1980,1980,1953,1953,1953,1964,1964,1987,1987,1987,1946,1946,1970,1970,1970,1973,1973,1963,1963,1963,1979,1979,1950,1950,1950,1969,1969,1962,1962,1962,1971,1971,1967,1967,1967,1975,1975,1977,1977,1977,1979,1979,1969,1969,1969,1962,1962,1985,1985,1985,1953,1953,1976,1976,1976,1947,1947,1952,1952,1952,1981,1981,1947,1947,1964,1964,1964,1981,1981,1981,1981,1981,1977,1977,1965,1965,1965,1960,1960,1956,1956,1956,1971,1971,1979,1979,1979,1979,1979,1956,1956,1956,1967,1967,1983,1983,1983,1955,1955,1963,1963,1963,1975,1975,1964,1964,1964,1976,1976,1978,1978,1978,1956,1956,1969,1969,1969,1988,1988,1986,1986,1986,1931,1931,1955,1955,1955,1954,1954,1976,1976,1976,1974,1974,1956,1956,1956,1946,1946,1964,1964,1964,1960,1960,1958,1958,1958,1957,1957,1957,1957,1957,1964,1964,1947,1947,1947,1966,1966,1961,1961,1961,1931,1931,1944,1944,1944,1958,1958,1980,1980,1980,1961,1961,1966,1966,1966,1946,1946,1939,1939,1939,1953,1953,1964,1964,1964,1970,1970,1964,1964,1964,1962,1962,1955,1955,1955,1959,1959,1959,1959,1959,1950,1950,1951,1951,1951,1970,1970,1935,1935,1935,1953,1953,1961,1961,1961,1999,1999,1952,1952,1952,1967,1967,1958,1958,1958,1956,1956,1953,1953,1953,1953,1953,1953,1953,1953,1959,1959,1980,1980,1980,1978,1978,1957,1957,1957,1984,1984,1966,1966,1966,1985,1985,2005,2005,2005,1984,1984,1970,1970,1970,1996,1996,1996,1996,1986,1986,1986,2015,2015,2021,2021,2021,2021,2021,2011,2011,2011,2006,2006,2009,2009,2009,2018,2018,2052,2052,2052,2017,2017,2041,2041,2041,2040,2040,2063,2063,2063,2073,2073,2042,2042,2042,2039,2039,2073,2073,2073,2084,2084,2084,2084,2084,2079,2079,2086,2086,2086,2075,2075,2107,2107,2107,2079,2079,2096,2096,2096,2093,2093,2107,2107,2107,2077,2077,2104,2104,2104,2110,2110,2094,2094,2094,2133,2133,2081,2081,2081,2101,2101,2099,2099,2099,2108,2108,2116,2116,2116,2116,2116,2103,2103,2103,2095,2095,2119,2119,2119,2098,2098,2117,2117,2117,2091,2091,2091,2091,2091,2103,2103,2119,2119,2119,2101,2101,2089,2089,2089,2100,2100,2107,2107,2107,2092,2092,2113,2113,2113,2121,2121,2110,2110,2110,2104,2104,2096,2096,2096,2101,2101,2113,2113,2113,2108,2108,2084,2084,2084,2108,2108,2104,2104,2104,2094,2094,2108,2108,2108,2103,2103,2093,2093,2093,2110,2110,2114,2114,2114,2089,2089,2105,2105,2105,2105,2105,2094,2094,2094,2104,2104,2075,2075,2075,2072,2072,2090,2090,2090,2102,2102,2070,2070,2070,2080,2080,2065,2065,2065,2089,2089,2082,2082,2057,2057,2057,2048,2048,2071,2071,2071,2061,2061,2048,2048,2048,2073,2073,2072,2072,2072,2051,2051,2036,2036,2036,2045
2003,2003,1978,1978,1978,1993,1993,1986,1986,1986,2010,2010,1971,1971,1971,1982,1982,2001,2001,2001,1975,1975,1973,1973,1973,1970,1970,1993,1993,1993,2009,2009,2009,2009,2009,1972,1972,1998,1998,1998,1986,1986,1970,1970,1970,1983,1983,1996,1996,1996,1996,1996,1977,1977,1977,1983,1983,2001,2001,2001,2014,2014,2002,2002,2002,2008,2008,2019,2019,2019,1994,1994,2026,2026,2026,1992,1992,2025,2025,2025,2002,2002,1996,1996,1996,1991,1991,2001,2001,2001,2001,2001,2010,2010,2010,2019,2019,2000,2000,2000,2014,2014,2021,2021,2021,2002,2002,2016,2016,2016,2013,2013,2019,2019,2019,2018,2018,2029,2029,2029,2002,2002,2011,2011,2011,1993,1993,2005,2005,2005,2004,2004,2008,2008,2008,1987,1987,1983,1983,1983,2018,2018,2000,2000,2000,2017,2017,2014,2014,2014,1974,1974,2005,2005,2005,2008,2008,1998,1998,1998,1993,1993,2013,2013,2013,2011,2011,1970,1970,1970,1988,1988,1981,1981,1981,1974,1974,1995,1995,1995,1992,1992,1986,1986,1986,1982,1982,1981,1981,1981,1959,1959,1959,1959,1959,1959,1959,1987,1987,1953,1953,1953,1974,1974,1973,1973,1973,1956,1956,1955,1955,1955,1990,1990,1950,1950,1950,1964,1964,1937,1937,1937,1952,1952,1956,1956,1956,1951,1951,1942,1942,1942,1963,1963,1958,1958,1958,1950,1950,1935,1935,1935,1936,1936,1965,1965,1965,1957,1957,1958,1958,1958,1973,1973,1928,1928,1928,1956,1956,1941,1941,1941,1963,1963,1949,1949,1949,1919,1919,1949,1949,1949,1951,1951,1916,1916,1916,1938,1938,1935,1935,1935,1956,1956,1937,1937,1937,1936,1936,1943,1943,1943,1957,1957,1931,1931,1931,1952,1952,1939,1939,1939,1939,1939,1961,1961,1961,1954,1954,1942,1942,1942,1942,1942,1927,1927,1927,1924,1924,1952,1952,1952,1934,1934,1963,1963,1963,1941,1941,1957,1957,1957,1921,1921,1949,1949,1949,1928,1928,1950,1950,1950,1957,1957,1942,1942,1942,1926,1926,1944,1944,1944,1937,1937,1937,1937,1937,1955,1955,1960,1960,1960,1922,1922,1963,1963,1963,1920,1920,1937,1937,1937,1923,1923,1925,1925,1925,1937,1937,1956,1956,1956,1975,1975,1954,1954,1954,1969,1969,1933,1933,1933,1961,1961,1971,1971,1985,1985,1985,1980,1980,1972,1972,1972,1955,1955,1984,1984,1984,2013,2013,1980,1980,1980,1987,1987,1974,1974,1974,1982,1982,1987,1987,1987,2015,2015,2031,2031,2031,2011,2011,2008,2008,2008,2032,2032,2030,2030,2030,2049,2049,2033,2033,2033,2051,2051,2044,2044,2044,2055,2055,2034,2034,2034,2082,2082,2061,2061,2061,2062,2062,2069,2069,2069,2099,2099,2044,2044,2044,2062,2062,2083,2083,2083,2084,2084,2060,2060,2060,2068,2068,2095,2095,2095,2070,2070,2062,2062,2062,2075,2075,2096,2096,2096,2061,2061,2080,2080,2080,2078,2078,2091,2091,2091,2080,2080,2071,2071,2071,2096,2096,2100,2100,2100,2086,2086,2060,2060,2060,2063,2063,2055,2055,2055,2078,2078,2104,2104,2104,2076,2076,2083,2083,2083,2066,2066,2078,2078,2078,2076,2076,2079,2079,2079,2060,2060,2058,2058,2058,2105,2105,2079,2079,2079,2070,2070,2072,2072,2072,2086,2086,2089,2089,2089,2083,2083,2070,2070,2070,2062,2062,2085,2085,2085,2079,2079,2098,2098,2098,2092,2092,2093,2093,2093,2051,2051,2079,2079,2079,2059,2059,2091,2091,2091,2092,2092,2061,2061,2061,2055,2055,2059,2059,2058,2058,2058,2053,2053,2061,2061,2061,2069,2069,2068,2068,2068,2063,2063,2080,2080,2080,2048,2048,2059,2059,2059,2060,2060,2043,2043,2043,2067,2067,2076,2076,2076,2077,2077,2053,2053,2053,2054,2054,2048,2048,2048,2043,2043,2036,2036,2036,2037,2037,2033,2033,2033,2053,2053,2045,2045,2045,2057,2057,2035,2035,2035,2031,2031,2019,2019,2019,2007,2007,2043,2043,2043,2042,2042,2026,2026,2026,2014,2014,2016,2016,2016,2025,2025,2033,2033,2033,2035,2035,1996,1996,1996,2006,2006,2026,2026,2026,2002,2002,1996,1996,1996,2008,2008,2014,2014,2014,2027,2027,1999,1999,1999,1991,1991,1980,1980,1980,2004,2004,2013,2013,2013,2000,2000,2016,2016,2016,1984,1984,1977,1977,1977,2027,2027,1983,1983,1983,2015,2015,1996,1996,1996,1989,1989,2007,2007,2007,2003,2003,2000,2000,2000,2006,2006,2009,2009,2009,1990,1990,1975,1975,1975,2016,2016,2002,2002,2002,2024,2024,1998,1998,1998,1982,1982,1980,1980,1980,1993,1993,2000,2000,2000,1989,1989,1981,1981,1981,1998,1998,1972,1972,1972,1988,1988,1976,1976,1976,1981,1981,1997,1997,1970,1970,1970,1983,1983,1965,1965,1965,1971,1971,1976,1976,1976,1988,1988,1988,1988,1988,1986,1986,1962,1962,1962,1987,1987,1959,1959,1959,1957,1957,1998,1998,1998,1981,1981,1975,1975,1975,1982,1982,1984,1984,1984,1982,1982,1971,1971,1971,1977,1977,1942,1942,1942,1947,1947,1991,1991,1991,1964,1964,1939,1939,1939,1967,1967,1978,1978,1978,1952,1952,1942,1942,1942,1977,1977,1973,1973,1973,1946,1946,1941,1941,1941,1938,1938,1961,1961,1961,1947,1947,1962,1962,1962,1928,1928,1939,1939,1939,1944,1944,1961,1961,1961,1947,1947,1931,1931,1931,1954,1954,1943,1943,1943,1960,1960,1926,1926,1926,1948,1948,1947,1947,1947,1929,1929,1926,1926,1926,1944,1944,1933,1933,1933,1915,1915,1952,1952,1952,1942,1942,1927,1927,1927,1933,1933,1928,1928,1928,1915,1915,1911,1911,1911,1916,1916,1928,1928,1928,1916,1916,1916,1916,1916,1911,1911,1925,1925,1925,1915,1915,1903,1903,1903,1925,1925,1918,1918,1918,1934,1934,1901,1901,1901,1930,1930,1927,1927,1927,1938,1938,1907,1907,1907,1937,1937,1906,1906,1906,1935,1935,1888,1888,1920,1920,1920,1941,1941,1932,1932,1932,1899,1899,1910,1910,1910,1902,1902,1928,1928,1928,1914,1914,1888,1888,1888,1915,1915,1893,1893,1893,1893,1893,1942,1942,1942,1907,1907,1931,1931,1931,1899,1899,1906,1906,1906,1913,1913,1913,1913,1913,1900,1900,1933,1933,1933,1924,1924,1905,1905,1905,1910,1910,1890,1890,1890,1924,1924,1928,1928,1928,1894,1894,1912,1912,1912,1908,1908,1900,1900,1900,1908,1908,1903,1903,1903,1900,1900,1929,1929,1929,1916,1916,1886,1886,1886,1900,1900,1895,1895,1895,1883,1883,1900,1900,1900,1923,1923,1928,1928,1928,1905,1905,1915,1915,1915,1893,1893,1900,1900,1900,1908,1908,1907,1907,1907,1904,1904,1899,1899,1899,1906,1906,1918,1918,1918,1916,1916,1925,1925,1925,1939,1939,1936,1936,1936,1948,1948,1940,1940,1940,1921,1921,1929,1929,1929,1958,1958,1943,1943,1943,1956,1956,1966,1966,1966,1926,1926,1937,1937,1937,1963,1963,1969,1969,1969,1984,1984,1981,1981,1981,1989,1989,1966,1966,1966,1983,1983,1997,1997,1997,1978,1978,1998,1998,1998,1991,1991,1996,1996,1996,2015,2015,1995,1995,1995,2019,2019,2032,2032,2018,2018,2018,2006,2006,2038,2038,2038,2010,2010,2039,2039,2039,2024,2024,2028,2028,2028,2006,2006,2041,2041,2041,2012,2012,2034,2034,2034,2045,2045,2026,2026,2026,2039,2039,2033,2033,2033,2037,2037,2059,2059,2059,2021,2021,2018,2018,2018,2052,2052,2050,2050,2050,2050,2050,2021,2021,2021,2048,2048,2012,2012,2012,2027,2027,2042,2042,2042,2048,2048,2046,2046,2046,2032,2032,2023,2023,2023,2042,2042,2023,2023,2023,2016,2016,2020,2020,2020,2032,2032,2023,2023,2023,2039,2039,2017,2017,2017,2024,2024,2039,2039,2039,2033,2033,2017,2017,2017,2041,2041,2038,2038,2038,2030,2030,2038,2038,2038,2035,2035,2031,2031,2031,2031,2031,2040,2040,2040,2016,2016,2036,2036,2036,2023,2023,2021,2021,2021,2046,2046,2032,2032,2032,2009,2009,2043,2043,2043,2025,2025,2026,2026,2026,2048,2048,2027,2027,2027,2051,2051,2023,2023,2023,2048,2048,2028,2028,2028,2060,2060,2010,2010,2010,2019,2019,2040,2040,2040,2016,2016,2048,2048,2048,2010,2010,2009,2009,2009,2016,2016,2024,2024,2024,2009,2009,2004,2004,2004,2007,2007,2027,2027,2007,2007,2007,2018,2018,2031,2031,2031,2042,2042,2023,2023,2023,1992,1992,2004,2004,2004,2037,2037,2032,2032,2032,2030,2030,2032,2032,2032,1986,1986,2000,2000,2000,2001,2001,1988,1988,1988,2004,2004,2022,2022,2022,1977,1977,1989,1989,1989,1984,1984,2001,2001,2001,1999,1999,1994,1994,1994,2017,2017,2001,2001,2001,2008,2008,2003,2003,2003,2000,2000,1993,1993,1993,2015,2015,2008,2008,2008,2011,2011,1993,1993,1993,1972,1972,1974,1974,1974,1993,1993,1991,1991,1991,1979,1979,1996,1996,1996,2012,2012,1977,1977,1977,1972,1972,1991,1991,1991,2005,2005,1979,1979,1979,1976,1976,1982,1982,1982,1980,1980,1954,1954,1954,1970,1970,1981,1981,1981,1966,1966,1974,1974,1974,1965,1965,1983,1983,1983,1971,1971,1979,1979,1979,1972,1972,1964,1964,1964,1974,1974,1949,1949,1949,1984,1984,1959,1959,1959,1973,1973,1974,1974,1974,1975,1975,1976,1976,1976,1947,1947,1940,1940,1940,1979,1979,1971,1971,1971,1948,1948,1950,1950,1950,1946,1946,1952,1952,1952,1958,1958,1952,1952,1952,1948,1948,1946,1946,1946,1954,1954,1946,1946,1964,1964,1964,1948,1948,1964,1964,1964,1951,1951,1961,1961,1961,1938,1938,1971,1971,1971,1956,1956,1938,1938,1938,1968,1968,1966,1966,1966,1961,1961,1944,1944,1944,1929,1929,1931,1931,1931,1949,1949,1927,1927,1927,1930,1930,1930,1930,1930,1921,1921,1942,1942,1942,1951,1951,1935,1935,1935,1939,1939,1926,1926,1926,1934,1934,1920,1920,1920,1931,1931,1926,1926,1926,1921,1921,1914,1914,1914,1916,1916,1913,1913,1913,1919,1919,1921,1921,1921,1926,1926,1943,1943,1943,1913,1913,1910,1910,1910,1900,1900,1899,1899,1899,1932,1932,1889,1889,1889,1921,1921,1905,1905,1905,1913,1913,1913,1913,1913,1920,1920,1903,1903,1903,1916,1916,1904,1904,1904,1936,1936,1899,1899,1899,1917,1917,1916,1916,1916,1898,1898,1898,1898,1898,1889,1889,1898,1898,1898,1875,1875,1901,1901,1901,1917,1917,1914,1914,1914,1889,1889,1879,1879,1879,1890,1890,1908,1908,1908,1917,1917,1896,1896,1896,1883,1883,1889,1889,1889,1908,1908,1905,1905,1905,1874,1874,1900,1900,1900,1879,1879,1867,1867,1867,1914,1914,1884,1884,1884,1881,1881,1885,1885,1885,1865,1865,1915,1915,1889,1889,1889,1899,1899,1883,1883,1883,1902,1902,1904,1904,1904,1891,1891,1873,1873,1873,1871,1871,1895,1895,1895,1894,1894,1879,1879,1879,1885,1885,1907,1907,1907,1905,1905,1908,1908,1908,1897,1897,1891,1891,1891,1893,1893,1876,1876,1876,1890,1890,1891,1891,1891,1914,1914,1904,1904,1904,1891,1891,1896,1896,1896,1892,1892,1893,1893,1893,1913,1913,1921,1921,1921,1889,1889,1924,1924,1924,1934,1934,1932,1932,1932,1921,1921,1911,1911,1911,1911,1911,1915,1915,1915,1922,1922,1957,1957,1957,1961,1961,1936,1936,1936,1953,1953,1975,1975,1975,1980,1980,1985,1985,1985,1995,1995,1976,1976,1976,1979,1979,1993,1993,1993,2017,2017,1995,1995,1995,2033,2033,2009,2009,2009,2043,2043,2036,2036,2036,2023,2023,2045,2045,2045,2059,2059,2049,2049,2049,2057,2057,2050,2050,2050,2044,2044,2063,2063,2063,2049,2049,2077,2077,2077,2053,2053,2075,2075,2075,2066,2066,2057,2057,2057,2052,2052,2051,2051,2051,2087,2087,2062,2062,2062,2045,2045,2062,2062,2062,2065,2065,2047,2047,2047,2073,2073,2075,2075,2075,2048,2048,2060,2060,2036,2036,2036,2054,2054,2062,2062,2062,2051,2051,2057,2057,2057,2069,2069,2049,2049,2049,2056,2056,2030,2030,2030,2066,2066,2035,2035,2035,2047,2047,2025,2025,2025,2036,2036,2059,2059,2059,2059,2059,2015,2015,2015,2029,2029,2029,2029,2029,2043,2043,2010,2010,2010,2043,2043,2027,2027,2027,2026,2026,2023,2023,2023,2047,2047,2017,2017,2017,2053,2053,2038,2038,2038
2039,2039,2039,2029,2029,2042,2042,2042,2044,2044,2014,2014,2014,2039,2039,2043,2043,2043,2031,2031,2031,2031,2031,2020,2020,2013,2013,2013,2022,2022,2014,2014,2014,2022,2022,2026,2026,2026,2013,2013,2016,2016,2016,2021,2021,2030,2030,2030,2019,2019,2002,2002,2002,2024,2024,2012,2012,2012,2018,2018,2004,2004,2029,2029,2029,2010,2010,2003,2003,2003,2001,2001,2001,2001,2001,1993,1993,1996,1996,1996,2006,2006,2000,2000,2000,1992,1992,2004,2004,2004,2006,2006,1990,1990,1990,2011,2011,1995,1995,1995,2009,2009,1995,1995,1995,1984,1984,1984,1984,1984,1992,1992,1991,1991,1991,1985,1985,1973,1973,1973,1991,1991,1988,1988,1988,1986,1986,1987,1987,1987,1978,1978,1969,1969,1969,1985,1985,1997,1997,1997,1980,1980,1993,1993,1993,1996,1996,1962,1962,1962,1976,1976,1993,1993,1993,1990,1990,1974,1974,1974,1975,1975,1983,1983,1983,1976,1976,1974,1974,1974,1974,1974,1966,1966,1966,1974,1974,1965,1965,1965,1968,1968,1971,1971,1971,1992,1992,1978,1978,1978,1955,1955,1984,1984,1984,1969,1969,1965,1965,1965,1970,1970,1976,1976,1976,1963,1963,1957,1957,1957,1984,1984,1969,1969,1969,1994,1994,1969,1969,1969,1967,1967,1958,1958,1958,1956,1956,1971,1971,1971,1964,1964,1966,1966,1966,1979,1979,1963,1963,1963,1959,1959,1962,1962,1962,1959,1959,1964,1964,1964,1964,1964,1961,1961,1961,1961,1961,1974,1974,1974,1964,1964,1964,1964,1964,1956,1956,1977,1977,1969,1969,1969,1980,1980,1974,1974,1974,1986,1986,1995,1995,1995,1975,1975,1983,1983,1983,1986,1986,1980,1980,1980,1994,1994,2016,2016,2016,2022,2022,2008,2008,2008,2012,2012,2008,2008,2008,2012,2012,2016,2016,2016,2045,2045,2067,2067,2067,2069,2069,2043,2043,2043,2060,2060,2083,2083,2083,2077,2077,2084,2084,2084,2090,2090,2081,2081,2081,2095,2095,2092,2092,2092,2107,2107,2114,2114,2114,2121,2121,2119,2119,2119,2102,2102,2135,2135,2135,2142,2142,2132,2132,2132,2140,2140,2152,2152,2152,2124,2124,2162,2162,2162,2157,2157,2163,2163,2163,2147,2147,2145,2145,2145,2161,2161,2155,2155,2155,2150,2150,2148,2148,2148,2163,2163,2162,2162,2162,2167,2167,2153,2153,2153,2157,2157,2145,2145,2145,2163,2163,2172,2172,2172,2164,2164,2160,2160,2160,2157,2157,2166,2166,2166,2159,2159,2173,2173,2173,2157,2157,2150,2150,2150,2151,2151,2165,2165,2165,2145,2145,2167,2167,2167,2171,2171,2151,2151,2151,2141,2141,2167,2167,2167,2142,2142,2154,2154,2154,2153,2153,2162,2162,2162,2155,2155,2148,2148,2148,2150,2150,2140,2140,2119,2119,2119,2153,2153,2148,2148,2148,2137,2137,2149,2149,2149,2130,2130,2122,2122,2122,2134,2134,2141,2141,2141,2126,2126,2120,2120,2120,2124,2124,2131,2131,2131,2109,2109,2106,2106,2106,2100,2100,2095,2095,2095,2095,2095,2099,2099,2099,2092,2092,2099,2099,2099,2092,2092,2097,2097,2097,2083,2083,2084,2084,2084,2074,2074,2072,2072,2072,2080,2080,2074,2074,2074,2064,2064,2081,2081,2081,2067,2067,2053,2053,2053,2071,2071,2060,2060,2060,2059,2059,2062,2062,2062,2060,2060,2043,2043,2043,2057,2057,2056,2056,2056,2057,2057,2071,2071,2071,2043,2043,2044,2044,2044,2055,2055,2046,2046,2046,2048,2048,2035,2035,2035,2031,2031,2055,2055,2055,2052,2052,2038,2038,2038,2032,2032,2027,2027,2027,2028,2028,2046,2046,2046,2043,2043,2037,2037,2037,2052,2052,2039,2039,2039,2056,2056,2035,2035,2035,2048,2048,2030,2030,2030,2034,2034,2031,2031,2031,2052,2052,2052,2052,2052,2022,2022,2042,2042,2042,2025,2025,2048,2048,2048,2041,2041,2044,2044,2044,2023,2023,2043,2043,2043,2026,2026,2027,2027,2027,2030,2030,2050,2050,2038,2038,2038,2036,2036,2028,2028,2028,2014,2014,2031,2031,2031,2027,2027,2034,2034,2034,2027,2027,2020,2020,2020,2028,2028,2027,2027,2027,2007,2007,2016,2016,2016,1994,1994,2018,2018,2018,2003,2003,2022,2022,2022,2009,2009,2009,2009,2009,2011,2011,2010,2010,2010,2006,2006,2006,2006,2006,1997,1997,2001,2001,2001,2008,2008,2013,2013,2013,2025,2025,1983,1983,1983,2017,2017,1996,1996,1996,1987,1987,1989,1989,1989,1988,1988,1982,1982,1982,1979,1979,1991,1991,1991,1994,1994,1988,1988,1988,2004,2004,2015,2015,2015,1981,1981,1984,1984,1984,1974,1974,2001,2001,2001,1983,1983,1998,1998,1998,2007,2007,1983,1983,1983,1984,1984,1978,1978,1978,1976,1976,1987,1987,1987,1984,1984,1989,1989,1989,1991,1991,1991,1991,1991,1969,1969,1988,1988,1988,1994,1994,1986,1986,1986,1960,1960,1975,1975,1975,1992,1992,1964,1964,1964,1974,1974,1980,1980,1980,1964,1964,1963,1963,1963,1984,1984,1970,1970,1970,1978,1978,1982,1982,1982,1992,1992,1963,1963,1963,2002,2002,1949,1949,1949,1970,1970,1968,1968,1968,1958,1958,1983,1983,1983,1968,1968,1963,1963,1976,1976,1976,1995,1995,1988,1988,1988,1971,1971,1960,1960,1960,1955,1955,1960,1960,1960,1952,1952,1959,1959,1959,1947,1947,1951,1951,1951,1966,1966,1950,1950,1950,1960,1960,1972,1972,1972,1974,1974,1966,1966,1966,1972,1972,1958,1958,1958,1966,1966,1972,1972,1972,1956,1956,1976,1976,1976,1971,1971,1965,1965,1965,1985,1985,1976,1976,1976,1975,1975,1999,1999,1999,1996,1996,1995,1995,1995,1982,1982,1977,1977,1977,2000,2000,1989,1989,1989,1992,1992,2004,2004,2004,2013,2013,2039,2039,2039,2007,2007,2033,2033,2033,2059,2059,2044,2044,2044,2063,2063,2047,2047,2047,2054,2054,2075,2075,2075,2064,2064,2071,2071,2071,2101,2101,2096,2096,2096,2094,2094,2104,2104,2104,2112,2112,2115,2115,2115,2140,2140,2114,2114,2114,2125,2125,2129,2129,2129,2137,2137,2118,2118,2118,2130,2130,2147,2147,2147,2148,2148,2153,2153,2153,2140,2140,2145,2145,2145,2150,2150,2152,2152,2152,2143,2143,2165,2165,2165,2167,2167,2155,2155,2155,2172,2172,2179,2179,2179,2166,2166,2168,2168,2168,2163,2163,2162,2162,2162,2156,2156,2163,2163,2150,2150,2150,2161,2161,2154,2154,2154,2140,2140,2159,2159,2159,2135,2135,2146,2146,2146,2148,2148,2152,2152,2152,2150,2150,2142,2142,2142,2135,2135,2132,2132,2132,2145,2145,2122,2122,2122,2137,2137,2147,2147,2147,2126,2126,2119,2119,2119,2129,2129,2145,2145,2145,2117,2117,2131,2131,2131,2119,2119,2112,2112,2112,2125,2125,2104,2104,2104,2129,2129,2130,2130,2130,2121,2121,2098,2098,2098,2107,2107,2092,2092,2092,2094,2094,2096,2096,2096,2076,2076,2084,2084,2084,2089,2089,2095,2095,2095,2098,2098,2070,2070,2070,2082,2082,2058,2058,2058,2066,2066,2077,2077,2077,2051,2051,2068,2068,2068,2072,2072,2047,2047,2047,2039,2039,2044,2044,2044,2038,2038,2048,2048,2048,2037,2037,2053,2053,2053,2046,2046,2039,2039,2039,2032,2032,2028,2028,2028,2019,2019,2028,2028,2028,2020,2020,2031,2031,2031,2011,2011,2032,2032,2032,2024,2024,2038,2038,2038,2004,2004,2007,2007,2007,2039,2039,2028,2028,2028,2052,2052,2035,2035,2035,2015,2015,2013,2013,2013,2031,2031,2021,2021,2021,2013,2013,2026,2026,2026,2030,2030,2007,2007,2007,2000,2000,2026,2026,2029,2029,2029,2034,2034,2029,2029,2029,2018,2018,2015,2015,2015,2034,2034,2038,2038,2038,2010,2010,2020,2020,2020,2017,2017,2023,2023,2023,2004,2004,2016,2016,2016,2022,2022,2013,2013,2013,1997,1997,2000,2000,2000,2003,2003,2011,2011,2011,2007,2007,2021,2021,2021,2020,2020,1985,1985,1985,1999,1999,1993,1993,1993,1999,1999,1987,1987,1987,1974,1974,1997,1997,1997,1997,1997,1989,1989,1989,1994,1994,2004,2004,2004,1995,1995,1995,1995,1995,1988,1988,1996,1996,1996,2005,2005,1994,1994,1994,2004,2004,1980,1980,1980,1987,1987,2003,2003,2003,1973,1973,1992,1992,1992,1989,1989,1965,1965,1965,1969,1969,1972,1972,1972,1972,1972,1978,1978,1978,1983,1983,1962,1962,1962,1967,1967,1965,1965,1965,1974,1974,1982,1982,1982,1993,1993,1987,1987,1987,1987,1987,1980,1980,1980,1979,1979,1963,1963,1963,1960,1960,1969,1969,1969,1982,1982,1976,1976,1976,1959,1959,1957,1957,1957,1959,1959,1945,1945,1945,1965,1965,1949,1949,1949,1970,1970,1971,1971,1971,1967,1967,1980,1980,1980,1964,1964,1964,1964,1964,1990,1990,1960,1960,1967,1967,1967,1955,1955,1961,1961,1961,1969,1969,1954,1954,1954,1957,1957,1951,1951,1951,1984,1984,1968,1968,1968,1959,1959,1963,1963,1963,1965,1965,1968,1968,1968,1967,1967,1949,1949,1949,1945,1945,1946,1946,1946,1968,1968,1966,1966,1966,1949,1949,1943,1943,1943,1948,1948,1961,1961,1961,1955,1955,1950,1950,1950,1948,1948,1975,1975,1975,1959,1959,1958,1958,1958,1959,1959,1952,1952,1952,1969,1969,1945,1945,1945,1972,1972,1949,1949,1949,1952,1952,1942,1942,1942,1942,1942,1949,1949,1949,1939,1939,1948,1948,1948,1961,1961,1954,1954,1954,1962,1962,1977,1977,1977,1966,1966,1953,1953,1953,1961,1961,1958,1958,1958,1973,1973,1948,1948,1948,1957,1957,1963,1963,1963,1947,1947,1955,1955,1955,1977,1977,1975,1975,1975,1966,1966,1969,1969,1969,1953,1953,1998,1998,1998,1978,1978,1959,1959,1959,1973,1973,1994,1994,1994,1979,1979,2004,2004,2004,1988,1988,2015,2015,2015,2000,2000,2017,2017,2017,2027,2027,2026,2026,2026,2035,2035,2048,2048,2048,2040,2040,2048,2048,2048,2046,2046,2056,2056,2056,2053,2053,2089,2089,2084,2084,2084,2094,2094,2082,2082,2082,2101,2101,2079,2079,2079,2111,2111,2107,2107,2107,2097,2097,2117,2117,2117,2124,2124,2130,2130,2130,2122,2122,2129,2129,2129,2129,2129,2139,2139,2139,2133,2133,2129,2129,2129,2126,2126,2126,2126,2126,2123,2123,2138,2138,2138,2134,2134,2148,2148,2148,2128,2128,2134,2134,2134,2132,2132,2149,2149,2149,2141,2141,2146,2146,2146,2144,2144,2146,2146,2146,2151,2151,2164,2164,2164,2135,2135,2131,2131,2131,2139,2139,2134,2134,2134,2139,2139,2136,2136,2136,2115,2115,2139,2139,2139,2126,2126,2123,2123,2123,2120,2120,2126,2126,2126,2127,2127,2125,2125,2125,2142,2142,2127,2127,2127,2125,2125,2106,2106,2106,2132,2132,2119,2119,2119,2117,2117,2121,2121,2121,2103,2103,2104,2104,2104,2111,2111,2106,2106,2106,2086,2086,2095,2095,2095,2094,2094,2096,2096,2096,2089,2089,2100,2100,2100,2097,2097,2070,2070,2070,2080,2080,2065,2065,2065,2068,2068,2093,2093,2093,2074,2074,2062,2062,2062,2080,2080,2060,2060,2060,2051,2051,2058,2058,2058,2051,2051,2037,2037,2037,2047,2047,2059,2059,2059,2051,2051,2044,2044,2054,2054,2054,2047,2047,2038,2038,2038,2035,2035,2031,2031,2031,2024,2024,2026,2026,2026,2036,2036,2022,2022,2022,2033,2033,2022,2022,2022,2032,2032,2030,2030,2030,2031,2031,2017,2017,2017,2038,2038,2023,2023,2023,2005,2005,2012,2012,2012,2008,2008,2027,2027,2027,2014,2014,2036,2036,2036,2008,2008,2027,2027,2027,2020,2020,2007,2007,2007,2018,2018,2019,2019,2019,2032,2032,2016,2016,2016,2010,2010,1995,1995,1995,2010,2010,2004,2004,2004,2012,2012,2022,2022,2022,2011,2011,1993,1993,1993,2014,2014,2018,2018,2018,2014,2014,2006,2006,2006,1994,1994,2015,2015,2015,2008,2008,1985,1985,1985,2002,2002,2010,2010,2010,2003,2003,1998,1998,1998,1990,1990,1999,1999,1999,1989,1989,1979,1979,1979,1995,1995,1970,1970,1970,1996,1996,1964,1964,1964,2003,2003,1968,1968,1968,1990,1990,2003,2003,2003,1996,1996,1965,1965,1965,1995,1995,1979,1979,1979,1990,1990,1980,1980,1980,1971,1971,1967,1967,1967,1969,1969,1964,1964,1964,1989,1989,1992,1992,1992,1966,1966,1985,1985,1985,1984,1984,1995,1995,1995,1972,1972
1961,1971,1971,1971,1964,1964,1968,1968,1968,1994,1994,1988,1988,1988,1975,1975,1990,1990,1990,1983,1983,1967,1967,1967,1950,1950,1964,1964,1964,1987,1987,1981,1981,1981,1957,1957,1965,1965,1965,1960,1960,1951,1951,1951,1953,1953,1952,1952,1952,1998,1998,1961,1961,1961,1957,1957,1958,1958,1958,1966,1966,1969,1969,1969,1959,1959,1961,1961,1961,1982,1982,1979,1979,1979,1952,1952,1966,1966,1966,1954,1954,1974,1974,1974,1965,1965,1945,1945,1945,1956,1956,1956,1956,1956,1953,1953,1943,1943,1943,1966,1966,1940,1940,1940,1961,1961,1983,1983,1983,1957,1957,1947,1947,1947,1954,1954,1950,1950,1950,1978,1978,1957,1957,1957,1958,1958,1959,1959,1959,1946,1946,1969,1969,1969,1934,1934,1972,1972,1972,1943,1943,1967,1967,1967,1972,1972,1935,1935,1935,1939,1939,1976,1976,1976,1935,1935,1945,1945,1945,1942,1942,1944,1944,1944,1952,1952,1943,1943,1943,1947,1947,1946,1946,1946,1941,1941,1981,1981,1981,1980,1980,1954,1954,1954,1969,1969,1961,1961,1946,1946,1946,1978,1978,1942,1942,1942,1951,1951,1950,1950,1950,1984,1984,1959,1959,1959,1949,1949,1969,1969,1969,1977,1977,1935,1935,1935,1942,1942,1971,1971,1971,1951,1951,1957,1957,1957,1956,1956,1967,1967,1967,1979,1979,1979,1979,1979,1962,1962,1936,1936,1936,1971,1971,1937,1937,1937,1963,1963,1935,1935,1935,1949,1949,1931,1931,1931,1931,1931,1966,1966,1966,1960,1960,1961,1961,1961,1959,1959,1951,1951,1951,1951,1951,1962,1962,1962,1978,1978,1991,1991,1991,1997,1997,1997,1997,1997,1968,1968,1977,1977,1977,2012,2012,1983,1983,1983,1985,1985,2003,2003,2003,2014,2014,2055,2055,2055,2006,2006,2047,2047,2047,2051,2051,2035,2035,2035,2065,2065,2025,2025,2025,2038,2038,2037,2037,2037,2036,2036,2075,2075,2075,2063,2063,2049,2049,2049,2077,2077,2051,2051,2051,2048,2048,2053,2053,2053,2048,2048,2096,2096,2096,2075,2075,2077,2077,2077,2081,2081,2086,2086,2086,2057,2057,2097,2097,2097,2078,2078,2109,2109,2109,2101,2101,2084,2084,2084,2071,2071,2082,2082,2082,2075,2075,2096,2096,2096,2081,2081,2055,2055,2055,2084,2084,2108,2108,2091,2091,2091,2061,2061,2081,2081,2081,2089,2089,2085,2085,2085,2083,2083,2094,2094,2094,2107,2107,2116,2116,2116,2089,2089,2122,2122,2122,2110,2110,2130,2130,2130,2079,2079,2090,2090,2090,2102,2102,2107,2107,2107,2078,2078,2101,2101,2101,2086,2086,2120,2120,2120,2080,2080,2103,2103,2103,2083,2083,2083,2083,2083,2086,2086,2092,2092,2092,2094,2094,2119,2119,2119,2102,2102,2075,2075,2075,2080,2080,2080,2080,2080,2104,2104,2081,2081,2081,2091,2091,2062,2062,2062,2074,2074,2077,2077,2077,2056,2056,2052,2052,2052,2091,2091,2097,2097,2097,2052,2052,2085,2085,2085,2084,2084,2071,2071,2071,2056,2056,2069,2069,2069,2065,2065,2046,2046,2046,2054,2054,2062,2062,2062,2051,2051,2025,2025,2025,2059,2059,2040,2040,2040,2017,2017,2019,2019,2019,2025,2025,2044,2044,2044,2060,2060,2032,2032,2032,2024,2024,2031,2031,2031,2030,2030,2051,2051,2051,2039,2039,2017,2017,2017,2055,2055,2053,2053,2053,2037,2037,2033,2033,2033,2043,2043,2043,2043,2043,2020,2020,2062,2062,2062,2031,2031,2050,2050,2050,2050,2050,2026,2026,2038,2038,2038,2013,2013,2044,2044,2044,2023,2023,2031,2031,2031,2036,2036,2025,2025,2025,2023,2023,2029,2029,2029,1999,1999,2027,2027,2027,2011,2011,2015,2015,2015,2013,2013,2032,2032,2032,2025,2025,2036,2036,2036,2032,2032,2024,2024,2024,2036,2036,2006,2006,2006,2033,2033,2041,2041,2041,1990,1990,2010,2010,2010,1997,1997,2023,2023,2023,2032,2032,2022,2022,2022,2012,2012,1984,1984,1984,2021,2021,2015,2015,2015,1992,1992,1999,1999,1999,2012,2012,1975,1975,1975,1988,1988,1996,1996,1996,1976,1976,2010,2010,2010,1977,1977,2030,2030,2030,1993,1993,2003,2003,2003,2006,2006,2019,2019,2019,2011,2011,2012,2012,2012,1980,1980,2014,2014,2014,2013,2013,1986,1986,1986,1988,1988,1996,1996,1996,2008,2008,1978,1978,1978,1979,1979,1972,1972,1972,2018,2018,2007,2007,2007,2009,2009,1998,1998,1998,2007,2007,1976,1976,1976,2007,2007,2004,2004,2004,2007,2007,1988,1988,1988,1994,1994,1970,1970,1970,1994,1994,1970,1970,1970,1998,1998,2011,2011,2011,2004,2004,1968,1968,1968,2006,2006,1971,1971,1971,1981,1981,1975,1975,1975,1982,1982,1964,1964,1971,1971,1971,1987,1987,1985,1985,1985,1986,1986,1965,1965,1965,1986,1986,1969,1969,1969,2008,2008,1976,1976,1976,2004,2004,1971,1971,1971,1983,1983,1983,1983,1983,1969,1969,2002,2002,2002,1960,1960,1983,1983,1983,1951,1951,1961,1961,1961,1979,1979,1956,1956,1956,1979,1979,1987,1987,1987,1982,1982,1971,1971,1971,1985,1985,2003,2003,2003,1952,1952,1948,1948,1948,1951,1951,1991,1991,1991,1994,1994,1991,1991,1991,1990,1990,1953,1953,1953,1985,1985,1971,1971,1971,1956,1956,1981,1981,1981,1972,1972,1980,1980,1980,1958,1958,1963,1963,1963,1988,1988,1954,1954,1954,1982,1982,1968,1968,1968,1975,1975,1981,1981,1981,1946,1946,1950,1950,1950,1971,1971,1947,1947,1947,1943,1943,1951,1951,1951,1941,1941,1947,1947,1947,1942,1942,1974,1974,1974,1951,1951,1957,1957,1957,1971,1971,1990,1990,1990,1978,1978,1932,1932,1932,1932,1932,1980,1980,1980,1956,1956,1968,1968,1968,1987,1987,1932,1932,1932,1969,1969,1944,1944,1944,1984,1984,1979,1979,1979,1959,1959,1981,1981,1981,1995,1995,2003,2003,2003,1974,1974,1962,1962,1992,1992,1992,2019,2019,1995,1995,1995,1991,1991,2011,2011,2011,2005,2005,1996,1996,1996,2011,2011,2015,2015,2015,2048,2048,2032,2032,2032,2018,2018,2050,2050,2050,2035,2035,2039,2039,2039,2028,2028,2072,2072,2072,2066,2066,2045,2045,2045,2048,2048,2047,2047,2047,2052,2052,2059,2059,2059,2077,2077,2084,2084,2084,2051,2051,2081,2081,2081,2041,2041,2062,2062,2062,2049,2049,2079,2079,2079,2100,2100,2093,2093,2093,2083,2083,2069,2069,2069,2073,2073,2072,2072,2072,2090,2090,2058,2058,2058,2089,2089,2070,2070,2070,2087,2087,2099,2099,2099,2071,2071,2095,2095,2095,2053,2053,2064,2064,2064,2095,2095,2051,2051,2051,2056,2056,2095,2095,2095,2088,2088,2104,2104,2104,2090,2090,2097,2097,2097,2062,2062,2076,2076,2076,2064,2064,2081,2081,2081,2088,2088,2078,2078,2078,2099,2099,2065,2065,2065,2069,2069,2082,2082,2082,2087,2087,2091,2091,2091,2089,2089,2063,2063,2063,2110,2110,2069,2069,2069,2069,2069,2067,2067,2067,2082,2082,2094,2094,2094,2054,2054,2056,2056,2056,2064,2064,2055,2055,2055,2084,2084,2078,2078,2091,2091,2091,2068,2068,2050,2050,2050,2104,2104,2063,2063,2063,2093,2093,2085,2085,2085,2086,2086,2071,2071,2071,2063,2063,2102,2102,2102,2089,2089,2071,2071,2071,2060,2060,2053,2053,2053,2056,2056,2055,2055,2055,2062,2062,2062,2062,2062,2050,2050,2058,2058,2058,2049,2049,2029,2029,2029,2059,2059,2058,2058,2058,2032,2032,2056,2056,2056,2022,2022,2054,2054,2054,2045,2045,2019,2019,2019,2029,2029,2033,2033,2033,2048,2048,2048,2048,2048,2031,2031,2019,2019,2019,2012,2012,2052,2052,2052,2037,2037,2030,2030,2030,2032,2032,2016,2016,2016,2032,2032,2038,2038,2038,2007,2007,2035,2035,2035,2033,2033,2005,2005,2005,2024,2024,2018,2018,2018,2023,2023,2016,2016,2016,2000,2000,2046,2046,2046,2003,2003,2038,2038,2038,2011,2011,2021,2021,2021,2017,2017,2035,2035,2035,2048,2048,2031,2031,2031,2041,2041,2007,2007,2007,2001,2001,2008,2008,2008,2013,2013,2025,2025,2025,2044,2044,2041,2041,2041,2030,2030,1995,1995,1995,2019,2019,2028,2028,2028,1997,1997,1995,1995,1995,2036,2036,2043,2043,2043,1992,1992,2018,2018,2018,2010,2010,1992,1992,2006,2006,2006,2009,2009,2020,2020,2020,1993,1993,2023,2023,2023,2015,2015,2014,2014,2014,2014,2014,1986,1986,1986,2003,2003,2009,2009,2009,1999,1999,2035,2035,2035,2017,2017,2036,2036,2036,2008,2008,2016,2016,2016,2014,2014,2006,2006,2006,2020,2020,1997,1997,1997,2034,2034,2003,2003,2003,2001,2001,2034,2034,2034,2006,2006,2008,2008,2008,2002,2002,1993,1993,1993,2033,2033,1999,1999,1999,2007,2007,1996,1996,1996,2014,2014,2017,2017,2017,1991,1991,1995,1995,1995,1990,1990,1987,1987,1987,2021,2021,2015,2015,2015,1995,1995,1979,1979,1979,2008,2008,1995,1995,1995,2005,2005,1999,1999,1999,1998,1998,2003,2003,2003,2010,2010,1982,1982,1982,2001,2001,1976,1976,1976,1974,1974,1975,1975,1975,1977,1977,1999,1999,1999,1989,1989,1989,1989,1989,1974,1974,1973,1973,1973,1967,1967,1995,1995,1995,1987,1987,1960,1960,1960,1979,1979,1999,1999,1999,2008,2008,1975,1975,1975,1972,1972,1972,1972,1972,1999,1999,1979,1979,1979,2000,2000,2012,2012,2012,1998,1998,1970,1970,1970,2017,2017,1972,1972,1972,1980,1980,1984,1984,2013,2013,2013,1956,1956,1981,1981,1981,1990,1990,1972,1972,1972,1983,1983,1978,1978,1978,1988,1988,1981,1981,1981,1990,1990,1979,1979,1979,1979,1979,1963,1963,1963,1972,1972,1958,1958,1958,1980,1980,1961,1961,1961,1967,1967,1984,1984,1984,1988,1988,1971,1971,1971,2011,2011,2003,2003,2003,1977,1977,1969,1969,1969,2001,2001,2002,2002,2002,1961,1961,1963,1963,1963,1983,1983,1984,1984,1984,2000,2000,2011,2011,2011,1987,1987,1958,1958,1958,1968,1968,2003,2003,2003,1999,1999,1985,1985,1985,1979,1979,2007,2007,2007,1979,1979,1979,1979,1979,1967,1967,2005,2005,2005,1996,1996,1997,1997,1997,1989,1989,2004,2004,2004,1985,1985,1991,1991,1991,1980,1980,2004,2004,2004,2023,2023,2003,2003,2003,2003,2003,2037,2037,2037,2006,2006,2006,2006,2006,1995,1995,2002,2002,2002,2011,2011,2025,2025,2025,2057,2057,2058,2058,2058,2053,2053,2036,2036,2036,2018,2018,2068,2068,2068,2076,2076,2064,2064,2064,2066,2066,2045,2045,2045,2067,2067,2074,2074,2074,2076,2076,2078,2078,2078,2060,2060,2090,2090,2090,2108,2108,2068,2068,2068,2062,2062,2080,2080,2106,2106,2106,2088,2088,2083,2083,2083,2098,2098,2097,2097,2097,2105,2105,2117,2117,2117,2086,2086,2118,2118,2118,2072,2072,2117,2117,2117,2099,2099,2058,2058,2058,2085,2085,2074,2074,2074,2091,2091,2067,2067,2067,2090,2090,2087,2087,2087,2110,2110,2112,2112,2112,2096,2096,2080,2080,2080,2080,2080,2107,2107,2107,2097,2097,2099,2099,2099,2109,2109,2103,2103,2103,2118,2118,2104,2104,2104,2101,2101,2081,2081,2081,2087,2087,2090,2090,2090,2121,2121,2114,2114,2114,2077,2077,2072,2072,2072,2105,2105,2095,2095,2095,2100,2100,2113,2113,2113,2096,2096,2097,2097,2097,2088,2088,2069,2069,2069,2079,2079,2107,2107,2107,2077,2077,2075,2075,2075,2065,2065,2118,2118,2118,2097,2097,2055,2055,2055,2060,2060,2087,2087,2087,2053,2053,2056,2056,2056,2080,2080,2086,2086,2086,2055,2055,2057,2057,2057,2043,2043,2080,2080,2080,2058,2058,2043,2043,2043,2062,2062,2073,2073,2073,2030,2030,2067,2067,2067,2046,2046,2053,2053,2053,2026,2026,2017,2017,2017,2044,2044,2037,2037,2037,2044,2044,2024,2024,2024,2018,2018,2014,2014,2052,2052,2052,2024,2024,2009,2009,2009,2012,2012,2026,2026,2026,2053,2053,2016,2016,2016,2055,2055,2023,2023,2023,2044,2044,2037,2037,2037,2025,2025,2028,2028,2028,2048,2048,2054,2054,2054,2040,2040,2008,2008,2008,2029,2029,2045,2045,2045,2046,2046,2035,2035,2035,2060,2060,2015,2015,2015,2002,2002,2033,2033,2033,2059,2059,2014,2014,2014,2002,2002,2046,2046,2046,2031
1967,2008,2008,1990,1990,1990,1964,1964,2006,2006,1963,1963,1963,1967,1967,1963,1963,1963,1966,1966,1953,1953,1953,1992,1992,1974,1974,1974,1982,1982,1949,1949,1949,1951,1951,1946,1946,1946,1990,1990,1994,1994,1994,1971,1971,1975,1975,1975,1969,1969,1972,1972,1972,1978,1978,1947,1947,1947,1986,1986,1964,1964,1964,1986,1986,1941,1941,1941,1969,1969,1955,1955,1955,1943,1943,1947,1947,1947,1972,1972,1968,1968,1968,1948,1948,1973,1973,1973,1972,1972,1939,1939,1939,1971,1971,1974,1974,1974,1936,1936,1960,1960,1960,1969,1969,1952,1952,1952,1943,1943,1939,1939,1939,1966,1966,1938,1938,1938,1922,1922,1971,1971,1971,1932,1932,1954,1954,1954,1932,1932,1927,1927,1927,1942,1942,1969,1969,1969,1968,1968,1966,1966,1966,1966,1966,1935,1935,1935,1958,1958,1950,1950,1950,1927,1927,1928,1928,1928,1939,1939,1958,1958,1958,1923,1923,1930,1930,1930,1931,1931,1939,1939,1939,1915,1915,1940,1940,1940,1947,1947,1935,1935,1935,1950,1950,1916,1916,1916,1952,1952,1916,1916,1916,1908,1908,1954,1954,1954,1926,1926,1962,1962,1962,1942,1942,1951,1951,1951,1951,1951,1910,1910,1943,1943,1943,1909,1909,1921,1921,1921,1942,1942,1904,1904,1904,1907,1907,1954,1954,1954,1931,1931,1948,1948,1948,1950,1950,1921,1921,1921,1909,1909,1927,1927,1927,1905,1905,1934,1934,1934,1948,1948,1927,1927,1927,1914,1914,1909,1909,1909,1908,1908,1949,1949,1949,1911,1911,1954,1954,1954,1905,1905,1928,1928,1928,1926,1926,1943,1943,1943,1912,1912,1905,1905,1905,1924,1924,1944,1944,1944,1946,1946,1911,1911,1911,1928,1928,1908,1908,1908,1935,1935,1929,1929,1929,1956,1956,1935,1935,1935,1917,1917,1953,1953,1953,1930,1930,1937,1937,1937,1953,1953,1955,1955,1955,1939,1939,1930,1930,1930,1946,1946,1965,1965,1965,1977,1977,1973,1973,1973,1965,1965,1953,1953,1953,1980,1980,1972,1972,1972,2009,2009,1982,1982,1982,1996,1996,2011,2011,2011,2031,2031,2016,2016,2016,2030,2030,2025,2025,2025,2033,2033,2048,2048,2048,2060,2060,2035,2035,2035,2078,2078,2045,2045,2045,2069,2069,2050,2050,2050,2049,2049,2079,2079,2079,2060,2060,2063,2063,2063,2097,2097,2069,2069,2069,2075,2075,2066,2066,2066,2098,2098,2104,2104,2104,2085,2085,2113,2113,2075,2075,2075,2108,2108,2086,2086,2086,2081,2081,2093,2093,2093,2098,2098,2115,2115,2115,2100,2100,2087,2087,2087,2093,2093,2089,2089,2089,2121,2121,2123,2123,2123,2097,2097,2140,2140,2140,2091,2091,2091,2091,2091,2121,2121,2111,2111,2111,2103,2103,2100,2100,2100,2097,2097,2123,2123,2123,2090,2090,2137,2137,2137,2121,2121,2124,2124,2124,2096,2096,2096,2096,2096,2144,2144,2103,2103,2103,2094,2094,2103,2103,2103,2103,2103,2131,2131,2131,2135,2135,2119,2119,2119,2108,2108,2123,2123,2123,2112,2112,2092,2092,2092,2117,2117,2141,2141,2141,2107,2107,2128,2128,2128,2128,2128,2133,2133,2133,2133,2133,2103,2103,2103,2129,2129,2123,2123,2123,2102,2102,2104,2104,2104,2111,2111,2105,2105,2105,2112,2112,2127,2127,2127,2120,2120,2105,2105,2105,2110,2110,2096,2096,2096,2086,2086,2083,2083,2083,2095,2095,2097,2097,2097,2118,2118,2075,2075,2075,2077,2077,2103,2103,2103,2111,2111,2069,2069,2069,2107,2107,2070,2070,2070,2104,2104,2059,2059,2059,2059,2059,2067,2067,2067,2072,2072,2064,2064,2064,2063,2063,2076,2076,2081,2081,2081,2041,2041,2049,2049,2049,2053,2053,2061,2061,2061,2050,2050,2071,2071,2071,2074,2074,2059,2059,2059,2035,2035,2075,2075,2075,2046,2046,2021,2021,2021,2061,2061,2055,2055,2055,2042,2042,2057,2057,2057,2038,2038,2039,2039,2039,2031,2031,2030,2030,2030,2023,2023,2054,2054,2054,2062,2062,2043,2043,2043,2022,2022,2036,2036,2036,2050,2050,2064,2064,2064,2053,2053,2020,2020,2020,2047,2047,2030,2030,2030,2029,2029,2035,2035,2035,2023,2023,2027,2027,2027,2025,2025,2055,2055,2055,2046,2046,2037,2037,2037,2046,2046,2051,2051,2051,2046,2046,2055,2055,2055,2045,2045,2030,2030,2030,2033,2033,2011,2011,2011,2042,2042,2037,2037,2037,2039,2039,2030,2030,2030,2028,2028,2018,2018,2018,2048,2048,2050,2050,2050,2011,2011,2040,2040,2040,2034,2034,2007,2007,2007,1992,1992,2006,2006,2006,2004,2004,2020,2020,2020,2029,2029,2008,2008,2008,2013,2013,2000,2000,2000,2033,2033,1996,1996,1996,2022,2022,2021,2021,2021,2006,2006,1979,1979,1979,2021,2021,2000,2000,2000,2016,2016,1973,1973,1973,1987,1987,1986,1986,1976,1976,1976,2003,2003,1994,1994,1994,2021,2021,1989,1989,1989,1993,1993,1986,1986,1986,1988,1988,2026,2026,2026,2016,2016,1971,1971,1971,1966,1966,2000,2000,2000,1973,1973,1966,1966,1966,2012,2012,2011,2011,2011,1975,1975,1960,1960,1960,1963,1963,1989,1989,1989,1990,1990,1970,1970,1970,1997,1997,1975,1975,1975,1946,1946,1966,1966,1966,1978,1978,1986,1986,1986,1973,1973,1988,1988,1988,1983,1983,1972,1972,1972,1968,1968,1969,1969,1969,1964,1964,1959,1959,1959,1968,1968,1974,1974,1974,1975,1975,1983,1983,1983,1946,1946,1970,1970,1970,1933,1933,1972,1972,1972,1965,1965,1967,1967,1967,1952,1952,1927,1927,1927,1935,1935,1946,1946,1946,1963,1963,1958,1958,1958,1937,1937,1971,1971,1971,1940,1940,1946,1946,1946,1959,1959,1956,1956,1956,1946,1946,1974,1974,1974,1949,1949,1956,1956,1956,1967,1967,1960,1960,1960,1957,1957,1923,1923,1923,1921,1921,1956,1956,1956,1934,1934,1942,1942,1942,1959,1959,1952,1952,1952,1970,1970,1946,1946,1946,1938,1938,1964,1964,1964,1956,1956,1928,1928,1928,1967,1967,1958,1958,1958,1931,1931,1946,1946,1928,1928,1928,1940,1940,1942,1942,1942,1940,1940,1927,1927,1927,1936,1936,1935,1935,1935,1957,1957,1923,1923,1923,1928,1928,1936,1936,1936,1939,1939,1929,1929,1929,1914,1914,1914,1914,1914,1927,1927,1905,1905,1905,1943,1943,1941,1941,1941,1909,1909,1928,1928,1928,1928,1928,1924,1924,1924,1937,1937,1903,1903,1903,1914,1914,1931,1931,1931,1909,1909,1939,1939,1939,1941,1941,1943,1943,1943,1910,1910,1920,1920,1920,1917,1917,1945,1945,1945,1922,1922,1917,1917,1917,1915,1915,1946,1946,1946,1933,1933,1916,1916,1916,1955,1955,1966,1966,1966,1957,1957,1941,1941,1941,1964,1964,1955,1955,1955,1971,1971,1963,1963,1963,1976,1976,1972,1972,1972,1969,1969,2008,2008,2008,1986,1986,2020,2020,2020,2009,2009,2004,2004,2004,2027,2027,2022,2022,2022,2038,2038,2038,2038,2038,2012,2012,2036,2036,2036,2067,2067,2029,2029,2029,2038,2038,2069,2069,2069,2044,2044,2052,2052,2052,2078,2078,2092,2092,2092,2053,2053,2050,2050,2050,2091,2091,2054,2054,2054,2095,2095,2093,2093,2093,2069,2069,2092,2092,2092,2090,2090,2078,2078,2079,2079,2079,2076,2076,2103,2103,2103,2097,2097,2102,2102,2102,2073,2073,2097,2097,2097,2094,2094,2085,2085,2085,2115,2115,2089,2089,2089,2091,2091,2090,2090,2090,2084,2084,2094,2094,2094,2090,2090,2110,2110,2110,2084,2084,2094,2094,2094,2119,2119,2122,2122,2122,2132,2132,2087,2087,2087,2125,2125,2092,2092,2092,2094,2094,2105,2105,2105,2115,2115,2111,2111,2111,2136,2136,2140,2140,2140,2109,2109,2090,2090,2090,2128,2128,2105,2105,2105,2099,2099,2140,2140,2140,2115,2115,2111,2111,2111,2133,2133,2099,2099,2099,2088,2088,2118,2118,2118,2114,2114,2138,2138,2138,2115,2115,2088,2088,2088,2091,2091,2104,2104,2104,2106,2106,2131,2131,2131,2090,2090,2119,2119,2119,2090,2090,2123,2123,2123,2091,2091,2083,2083,2083,2100,2100,2106,2106,2106,2087,2087,2118,2118,2118,2109,2109,2083,2083,2083,2077,2077,2063,2063,2063,2069,2069,2072,2072,2072,2054,2054,2056,2056,2056,2048,2048,2064,2064,2064,2060,2060,2048,2048,2048,2077,2077,2076,2076,2076,2050,2050,2032,2032,2032,2048,2048,2024,2024,2024,2031,2031,2061,2061,2038,2038,2038,2045,2045,2042,2042,2042,2031,2031,2022,2022,2022,2027,2027,2062,2062,2062,2020,2020,2032,2032,2032,2035,2035,2054,2054,2054,2034,2034,2041,2041,2041,2025,2025,2003,2003,2003,2008,2008,1995,1995,1995,2000,2000,2000,2000,2000,2035,2035,2008,2008,2008,2003,2003,2016,2016,2016,2019,2019,2000,2000,2000,2001,2001,2048,2048,2048,2039,2039,1997,1997,1997,2043,2043,2002,2002,2002,1992,1992,2023,2023,2023,2016,2016,2005,2005,2005,1985,1985,2030,2030,2030,1999,1999,2001,2001,2001,2028,2028,2022,2022,2022,2030,2030,2008,2008,2008,1990,1990,1996,1996,1996,1989,1989,2004,2004,2004,1987,1987,1986,1986,1986,2020,2020,2008,2008,2008,1983,1983,2018,2018,2018,1984,1984,2010,2010,2010,1999,1999,1993,1993,1993,1980,1980,1988,1988,1988,1990,1990,1998,1998,1998,1988,1988,1965,1965,1965,2007,2007,2008,2008,2008,1989,1989,1994,1994,1994,1958,1958,1958,1958,1958,1967,1967,1993,1993,1993,1984,1984,1991,1991,1991,1973,1973,1982,1982,1982,1968,1968,1969,1969,1969,1982,1982,1969,1969,1969,1988,1988,1985,1985,1985,1967,1967,1968,1968,1959,1959,1959,1959,1959,1984,1984,1984,1993,1993,1977,1977,1977,1958,1958,1987,1987,1987,1964,1964,1986,1986,1986,1959,1959,1954,1954,1954,1955,1955,1986,1986,1986,1998,1998,1982,1982,1982,1959,1959,1988,1988,1988,1989,1989,1948,1948,1948,1966,1966,1967,1967,1967,1952,1952,1977,1977,1977,1983,1983,1961,1961,1961,1942,1942,1957,1957,1957,1959,1959,1956,1956,1956,1968,1968,1969,1969,1969,1989,1989,1955,1955,1955,1953,1953,1951,1951,1951,1959,1959,1961,1961,1961,1943,1943,1974,1974,1974,1938,1938,1969,1969,1969,1936,1936,1937,1937,1937,1979,1979,1960,1960,1960,1965,1965,1981,1981,1981,1965,1965,1960,1960,1960,1956,1956,1980,1980,1980,1960,1960,1969,1969,1969,1987,1987,1978,1978,1978,1935,1935,1945,1945,1945,1957,1957,1941,1941,1941,1944,1944,1957,1957,1957,1965,1965,1946,1946,1946,1957,1957,1953,1953,1953,1932,1932,1955,1955,1955,1934,1934,1975,1975,1975,1939,1939,1973,1973,1973,1936,1936,1930,1930,1930,1952,1952,1931,1931,1931,1910,1910,1930,1930,1930,1922,1922,1922,1922,1922,1943,1943,1940,1940,1931,1931,1931,1942,1942,1920,1920,1920,1923,1923,1929,1929,1929,1919,1919,1916,1916,1916,1943,1943,1943,1943,1943,1933,1933,1943,1943,1943,1904,1904,1916,1916,1916,1912,1912,1904,1904,1904,1945,1945,1915,1915,1915,1923,1923,1941,1941,1941,1914,1914,1954,1954,1954,1917,1917,1906,1906,1906,1905,1905,1933,1933,1933,1927,1927,1909,1909,1909,1927,1927,1970,1970,1970,1955,1955,1929,1929,1929,1963,1963,1921,1921,1921,1927,1927,1966,1966,1966,1971,1971,1944,1944,1944,1963,1963,1993,1993,1993,1995,1995,1973,1973,1973,1956,1956,1989,1989,1989,2022,2022,2011,2011,2011,1987,1987,1988,1988,1988,2029,2029,2015,2015,2015,2014,2014,2038,2038,2038,2040,2040,2066,2066,2066,2034,2034,2079,2079,2079,2031,2031,2067,2067,2067,2078,2078,2067,2067,2067,2044,2044,2051,2051,2051,2060,2060,2086,2086,2086,2080,2080,2076,2076,2076,2083,2083,2078,2078,2078,2087,2087,2098,2098,2098,2057,2057,2094,2094,2094,2055,2055,2067,2067,2067,2093,2093,2081,2081,2081,2088,2088,2079,2079,2079,2076,2076,2108,2108,2108,2074,2074,2097,2097,2097,2075,2075,2089,2089,2074,2074,2074,2084,2084,2074,2074,2074,2079,2079,2110,2110,2110,2072,2072,2065,2065,2065,2119,2119,2099,2099,2099,2103,2103,2114,2114,2114,2089,2089,2105,2105,2105,2121,2121,2092,2092,2092,2110,2110,2114,2114,2114,2112,2112,2109,2109,2109,2083,2083
1955,1958,1958,1958,1927,1927,1953,1953,1953,1904,1904,1927,1927,1927,1947,1947,1900,1900,1900,1935,1935,1928,1928,1928,1912,1912,1928,1928,1928,1934,1934,1935,1935,1935,1923,1923,1900,1900,1900,1896,1896,1877,1877,1877,1918,1918,1921,1921,1921,1919,1919,1917,1917,1917,1868,1868,1912,1912,1912,1875,1875,1882,1882,1882,1881,1881,1913,1913,1913,1863,1863,1911,1911,1911,1872,1872,1878,1878,1878,1900,1900,1920,1920,1920,1864,1864,1927,1927,1927,1883,1883,1889,1889,1889,1911,1911,1877,1877,1877,1879,1879,1896,1896,1896,1930,1930,1926,1926,1926,1890,1890,1934,1934,1934,1928,1928,1888,1888,1888,1931,1931,1930,1930,1930,1932,1932,1950,1950,1950,1959,1959,1937,1937,1937,1930,1930,1943,1943,1943,1995,1995,1956,1956,1956,1985,1985,1987,1987,1987,1971,1971,1969,1969,1969,2013,2013,2032,2032,2032,1987,1987,2040,2040,2040,2043,2043,2018,2018,2018,2049,2049,2028,2028,2028,2029,2029,2046,2046,2046,2062,2062,2046,2046,2046,2031,2031,2052,2052,2052,2023,2023,2031,2031,2031,2023,2023,2070,2070,2070,2030,2030,2074,2074,2072,2072,2072,2067,2067,2081,2081,2081,2091,2091,2063,2063,2063,2053,2053,2064,2064,2064,2068,2068,2071,2071,2071,2067,2067,2074,2074,2074,2069,2069,2095,2095,2095,2087,2087,2062,2062,2062,2052,2052,2044,2044,2044,2069,2069,2051,2051,2051,2046,2046,2047,2047,2047,2062,2062,2080,2080,2080,2069,2069,2082,2082,2082,2093,2093,2073,2073,2073,2040,2040,2069,2069,2069,2035,2035,2066,2066,2066,2044,2044,2038,2038,2038,2081,2081,2046,2046,2046,2041,2041,2039,2039,2039,2037,2037,2063,2063,2063,2024,2024,2027,2027,2027,2048,2048,2045,2045,2045,2023,2023,2043,2043,2043,2059,2059,2055,2055,2055,2014,2014,2048,2048,2048,2017,2017,2022,2022,2022,2012,2012,2036,2036,2036,2024,2024,2055,2055,2055,2001,2001,2024,2024,2024,2003,2003,2015,2015,2015,2003,2003,1993,1993,1993,2005,2005,2038,2038,2038,2001,2001,2013,2013,2013,1984,1984,1990,1990,1990,1997,1997,2029,2029,2029,1994,1994,1984,1984,1984,2007,2007,1976,1976,1976,1983,1983,1993,1993,1993,2025,2025,2022,2022,2022,1998,1998,2003,2003,2003,2006,2006,1999,1999,1976,1976,1976,1973,1973,1984,1984,1984,1976,1976,1999,1999,1999,2005,2005,2009,2009,2009,2008,2008,1979,1979,1979,2012,2012,1983,1983,1983,1986,1986,1977,1977,1977,2025,2025,2023,2023,2023,2012,2012,1992,1992,1992,1967,1967,1967,1967,1967,1989,1989,2015,2015,2015,1987,1987,2007,2007,2007,1971,1971,2001,2001,2001,2004,2004,1979,1979,1979,2001,2001,2005,2005,2005,2006,2006,2001,2001,2001,2004,2004,1994,1994,1994,1974,1974,1968,1968,1968,1968,1968,1967,1967,1967,1998,1998,1990,1990,1990,2006,2006,2008,2008,2008,1975,1975,1969,1969,1969,1968,1968,1993,1993,1993,2004,2004,1964,1964,1964,1983,1983,2014,2014,2014,2007,2007,1961,1961,1961,1998,1998,1983,1983,1983,1970,1970,1999,1999,1999,1998,1998,1978,1978,1978,1964,1964,1959,1959,1959,1997,1997,1958,1958,1958,1968,1968,2002,2002,2002,1966,1966,2000,2000,2000,1987,1987,1974,1974,1974,2001,2001,1998,1998,1998,1952,1952,1958,1958,1958,1959,1959,2009,2009,2009,1967,1967,2001,2001,2001,1975,1975,1996,1996,1996,1985,1985,2001,2001,2001,2005,2005,1985,1985,1985,1973,1973,1974,1974,1978,1978,1978,1967,1967,2011,2011,2011,1971,1971,1965,1965,1965,2001,2001,1970,1970,1970,1971,1971,2013,2013,2013,2029,2029,2011,2011,2011,2000,2000,1964,1964,1964,1978,1978,2024,2024,2024,2015,2015,2007,2007,2007,1972,1972,2016,2016,2016,1973,1973,1996,1996,1996,1989,1989,1997,1997,1997,1981,1981,1995,1995,1995,1985,1985,2021,2021,2021,1987,1987,1991,1991,1991,2007,2007,2010,2010,2010,1999,1999,1985,1985,1985,1987,1987,1994,1994,1994,2021,2021,1985,1985,1985,1994,1994,2024,2024,2024,2018,2018,2022,2022,2022,1973,1973,2004,2004,2004,1994,1994,2000,2000,2000,2023,2023,1997,1997,1997,2018,2018,2034,2034,2034,2034,2034,2018,2018,2018,2047,2047,1995,1995,1995,2003,2003,2013,2013,2013,2050,2050,2022,2022,2022,2041,2041,2060,2060,2060,2040,2040,2047,2047,2047,2027,2027,2047,2047,2047,2064,2064,2045,2045,2045,2053,2053,2057,2057,2057,2091,2091,2104,2104,2104,2062,2062,2082,2082,2082,2127,2127,2133,2133,2133,2092,2092,2091,2091,2091,2093,2093,2111,2111,2111,2140,2140,2103,2103,2103,2160,2160,2153,2153,2138,2138,2138,2123,2123,2139,2139,2139,2148,2148,2126,2126,2126,2174,2174,2164,2164,2164,2171,2171,2147,2147,2147,2171,2171,2188,2188,2188,2167,2167,2172,2172,2172,2185,2185,2148,2148,2148,2153,2153,2146,2146,2146,2153,2153,2169,2169,2169,2188,2188,2164,2164,2164,2166,2166,2182,2182,2182,2174,2174,2178,2178,2178,2170,2170,2142,2142,2142,2166,2166,2138,2138,2138,2188,2188,2162,2162,2162,2176,2176,2149,2149,2149,2135,2135,2147,2147,2147,2171,2171,2153,2153,2153,2123,2123,2151,2151,2151,2171,2171,2127,2127,2127,2164,2164,2138,2138,2138,2170,2170,2155,2155,2155,2134,2134,2163,2163,2163,2112,2112,2124,2124,2124,2132,2132,2146,2146,2146,2118,2118,2113,2113,2113,2132,2132,2135,2135,2135,2105,2105,2124,2124,2124,2124,2124,2124,2124,2124,2103,2103,2101,2101,2101,2106,2106,2094,2094,2094,2105,2105,2121,2121,2121,2093,2093,2086,2086,2086,2098,2098,2104,2104,2104,2071,2071,2082,2082,2082,2090,2090,2069,2069,2069,2115,2115,2073,2073,2073,2096,2096,2073,2073,2073,2077,2077,2066,2066,2066,2078,2078,2098,2098,2085,2085,2085,2035,2035,2090,2090,2090,2033,2033,2084,2084,2084,2087,2087,2072,2072,2072,2063,2063,2074,2074,2074,2063,2063,2054,2054,2054,2069,2069,2033,2033,2033,2037,2037,2061,2061,2061,2050,2050,2026,2026,2026,2032,2032,2032,2032,2032,2061,2061,2013,2013,2013,2058,2058,2031,2031,2031,2062,2062,2039,2039,2039,2021,2021,2025,2025,2025,2057,2057,2051,2051,2051,2014,2014,2041,2041,2041,2036,2036,2008,2008,2008,2035,2035,2036,2036,2036,1999,1999,2016,2016,2016,1994,1994,2032,2032,2032,2024,2024,2001,2001,2001,2038,2038,2034,2034,2034,2021,2021,2015,2015,2015,2004,2004,2008,2008,2008,2010,2010,2008,2008,2008,2020,2020,2002,2002,2002,2008,2008,2023,2023,2023,1982,1982,2001,2001,2001,2018,2018,1989,1989,1989,1971,1971,1964,1964,1964,1975,1975,1991,1991,1991,1996,1996,1963,1963,1963,1977,1977,1963,1963,1963,1991,1991,1968,1968,1968,1998,1998,1968,1968,1968,1963,1963,1950,1950,1950,1956,1956,1951,1951,1951,1968,1968,1965,1965,1965,1945,1945,1976,1976,1976,1944,1944,1957,1957,1957,1958,1958,1972,1972,1972,1951,1951,1943,1943,1951,1951,1951,1941,1941,1944,1944,1944,1939,1939,1929,1929,1929,1947,1947,1927,1927,1927,1923,1923,1954,1954,1954,1921,1921,1926,1926,1926,1912,1912,1926,1926,1926,1960,1960,1909,1909,1909,1898,1898,1895,1895,1895,1918,1918,1906,1906,1906,1955,1955,1900,1900,1900,1923,1923,1900,1900,1900,1914,1914,1943,1943,1943,1941,1941,1932,1932,1932,1909,1909,1942,1942,1942,1950,1950,1899,1899,1899,1947,1947,1915,1915,1915,1935,1935,1895,1895,1895,1946,1946,1942,1942,1942,1941,1941,1899,1899,1899,1901,1901,1917,1917,1917,1906,1906,1931,1931,1931,1923,1923,1888,1888,1888,1910,1910,1930,1930,1930,1936,1936,1905,1905,1905,1899,1899,1897,1897,1897,1911,1911,1894,1894,1894,1929,1929,1901,1901,1901,1890,1890,1892,1892,1892,1921,1921,1894,1894,1894,1901,1901,1902,1902,1902,1959,1959,1950,1950,1950,1902,1902,1904,1904,1904,1952,1952,1923,1923,1923,1908,1908,1927,1927,1927,1920,1920,1926,1926,1926,1952,1952,1955,1955,1955,1944,1944,1920,1920,1920,1966,1966,1953,1953,1953,1981,1981,1952,1952,1952,1991,1991,1995,1995,1963,1963,1963,1995,1995,2009,2009,2009,1999,1999,1978,1978,1978,2027,2027,2019,2019,2019,2041,2041,2037,2037,2037,2047,2047,2027,2027,2027,2069,2069,2068,2068,2068,2038,2038,2072,2072,2072,2033,2033,2041,2041,2041,2083,2083,2070,2070,2070,2089,2089,2060,2060,2060,2065,2065,2064,2064,2064,2107,2107,2093,2093,2093,2080,2080,2076,2076,2076,2088,2088,2091,2091,2091,2100,2100,2080,2080,2080,2124,2124,2090,2090,2090,2124,2124,2090,2090,2090,2125,2125,2094,2094,2094,2101,2101,2084,2084,2084,2134,2134,2081,2081,2081,2116,2116,2100,2100,2100,2106,2106,2105,2105,2105,2138,2138,2087,2087,2087,2116,2116,2124,2124,2124,2110,2110,2126,2126,2126,2098,2098,2078,2078,2078,2113,2113,2096,2096,2096,2121,2121,2096,2096,2096,2099,2099,2069,2069,2069,2095,2095,2108,2108,2108,2117,2117,2088,2088,2088,2097,2097,2074,2074,2074,2068,2068,2067,2067,2067,2065,2065,2067,2067,2067,2068,2068,2084,2084,2084,2068,2068,2078,2078,2078,2055,2055,2053,2053,2053,2071,2071,2087,2087,2087,2042,2042,2067,2067,2067,2032,2032,2057,2057,2057,2042,2042,2035,2035,2037,2037,2037,2060,2060,2057,2057,2057,2047,2047,2023,2023,2023,2025,2025,2051,2051,2051,2023,2023,2054,2054,2054,2006,2006,2009,2009,2009,2013,2013,1997,1997,1997,2014,2014,2000,2000,2000,2004,2004,1990,1990,1990,1985,1985,2006,2006,2006,1994,1994,2020,2020,2020,1991,1991,1996,1996,1996,1990,1990,1997,1997,1997,1971,1971,2019,2019,2019,2019,2019,2016,2016,2016,2020,2020,1998,1998,1998,1985,1985,2011,2011,2011,2013,2013,2018,2018,2018,2009,2009,2014,2014,2014,1980,1980,2012,2012,2012,1978,1978,1981,1981,1981,1992,1992,1976,1976,1976,1985,1985,2004,2004,2004,2012,2012,2006,2006,2006,1993,1993,2004,2004,2004,1973,1973,1964,1964,1964,1993,1993,2007,2007,2007,1977,1977,1987,1987,1987,1997,1997,2008,2008,2008,2000,2000,1994,1994,1994,1960,1960,1980,1980,1980,1967,1967,1964,1964,1964,2004,2004,1990,1990,1990,1987,1987,1961,1961,1961,1982,1982,1982,1982,1982,1977,1977,1989,1989,1989,1969,1969,1989,1989,1989,1979,1979,1996,1996,1996,1960,1960,1988,1988,1988,1989,1989,1952,1952,1952,2004,2004,1982,1982,1952,1952,1952,1971,1971,1991,1991,1991,1994,1994,1981,1981,1981,1971,1971,1966,1966,1966,1961,1961,1986,1986,1986,1942,1942,1938,1938,1938,1956,1956,1972,1972,1972,1959,1959,1970,1970,1970,1937,1937,1982,1982,1982,1956,1956,1942,1942,1942,1953,1953,1955,1955,1955,1975,1975,1963,1963,1963,1927,1927,1952,1952,1952,1948,1948,1927,1927,1927,1977,1977,1932,1932,1932,1935,1935,1974,1974,1974,1933,1933,1975,1975,1975,1924,1924,1977,1977,1977,1965,1965,1932,1932,1932,1956,1956,1959,1959,1959,1935,1935,1956,1956,1956,1981,1981,1946,1946,1946,1953,1953,1930,1930,1930,1969,1969,1920,1920,1920,1948,1948,1958,1958,1958,1933,1933,1936,1936,1936,1939,1939,1922,1922,1922,1915,1915,1946,1946,1946,1942,1942,1923,1923,1923,1905,1905,1955,1955,1955,1913,1913,1929,1929,1929,1936,1936,1934,1934,1934,1918,1918,1944,1944,1944,1967,1967,1964,1964,1964,1935,1935,1929,1929,1929,1915,1915,1951,1951,1951,1907,1907,1956,1956,1956,1941,1941,1929,1929,1929,1951,1951,1943,1943,1943,1968,1968,1922,1922,1922,1953,1953,1954,1954,1929,1929,1929,1962,1962,1956,1956,1956,1948,1948,1940,1940,1940,1923,1923,1947,1947,1947,1950,1950,1939,1939,1939,1910,1910,1950,1950,1950,1939,1939,1932,1932,1932,1961,1961,1960,1960,1960,1955,1955,1944,1944,1944,1935,1935,1935,1935,1935,1953,1953,1967,1967,1967,1947,1947,1940,1940,1940,1941,1941,1957,1957,1957,1964
1915,1879,1879,1879,1887,1887,1883,1883,1883,1888,1888,1884,1884,1884,1839,1839,1902,1902,1902,1895,1895,1842,1842,1842,1888,1888,1883,1883,1845,1845,1845,1883,1883,1892,1892,1892,1854,1854,1852,1852,1852,1873,1873,1850,1850,1850,1849,1849,1903,1903,1903,1863,1863,1833,1833,1833,1907,1907,1868,1868,1868,1855,1855,1862,1862,1862,1868,1868,1885,1885,1885,1895,1895,1909,1909,1909,1908,1908,1909,1909,1909,1869,1869,1873,1873,1873,1847,1847,1858,1858,1858,1880,1880,1918,1918,1918,1923,1923,1923,1923,1923,1860,1860,1883,1883,1883,1933,1933,1870,1870,1870,1899,1899,1865,1865,1865,1947,1947,1919,1919,1919,1943,1943,1949,1949,1949,1923,1923,1916,1916,1916,1948,1948,1957,1957,1957,1971,1971,1932,1932,1932,1999,1999,1956,1956,1956,1969,1969,1972,1972,1972,2015,2015,1979,1979,1979,1979,1979,2034,2034,2034,1994,1994,2002,2002,2002,2048,2048,2071,2071,2071,2028,2028,2064,2064,2064,2086,2086,2055,2055,2055,2091,2091,2064,2064,2064,2075,2075,2038,2038,2038,2101,2101,2096,2096,2096,2056,2056,2054,2054,2054,2100,2100,2102,2102,2102,2051,2051,2103,2103,2103,2060,2060,2103,2103,2103,2071,2071,2096,2096,2096,2070,2070,2105,2105,2105,2094,2094,2067,2067,2067,2078,2078,2079,2079,2084,2084,2084,2114,2114,2055,2055,2055,2127,2127,2063,2063,2063,2088,2088,2080,2080,2080,2111,2111,2060,2060,2060,2123,2123,2064,2064,2064,2070,2070,2069,2069,2069,2074,2074,2110,2110,2110,2055,2055,2094,2094,2094,2084,2084,2054,2054,2054,2061,2061,2074,2074,2074,2087,2087,2098,2098,2098,2078,2078,2051,2051,2051,2046,2046,2085,2085,2085,2094,2094,2042,2042,2042,2019,2019,2085,2085,2085,2071,2071,2040,2040,2040,2073,2073,2063,2063,2063,2067,2067,2071,2071,2071,2010,2010,2051,2051,2051,2030,2030,2039,2039,2039,2059,2059,2063,2063,2063,1991,1991,2029,2029,2029,2025,2025,2025,2025,2025,1976,1976,1968,1968,1968,1970,1970,2022,2022,2022,2020,2020,1979,1979,1979,2011,2011,1955,1955,1955,2006,2006,1984,1984,1984,1989,1989,2016,2016,2016,2032,2032,1985,1985,1985,1996,1996,1973,1973,1973,1958,1958,2025,2025,2025,2025,2025,1968,1968,1968,2024,2024,2008,2008,2008,1958,1958,1971,1971,1971,1967,1967,2013,2013,2013,1953,1953,1979,1979,1979,1968,1968,1951,1951,1951,2007,2007,1985,1985,1985,1953,1953,1979,1979,1962,1962,1962,2014,2014,1939,1939,1939,1934,1934,1934,1934,1934,1979,1979,1986,1986,1986,1930,1930,1934,1934,1934,1939,1939,1929,1929,1929,1988,1988,1924,1924,1924,1943,1943,1969,1969,1969,1974,1974,1920,1920,1920,1986,1986,1924,1924,1924,1978,1978,1934,1934,1934,1923,1923,1911,1911,1911,1931,1931,1916,1916,1916,1952,1952,1914,1914,1914,1909,1909,1961,1961,1961,1897,1897,1904,1904,1904,1896,1896,1909,1909,1909,1942,1942,1947,1947,1947,1939,1939,1949,1949,1949,1931,1931,1919,1919,1919,1939,1939,1926,1926,1926,1931,1931,1883,1883,1883,1934,1934,1904,1904,1904,1924,1924,1874,1874,1874,1876,1876,1909,1909,1909,1941,1941,1941,1941,1941,1877,1877,1895,1895,1895,1920,1920,1897,1897,1897,1897,1897,1919,1919,1919,1903,1903,1955,1955,1955,1940,1940,1948,1948,1948,1879,1879,1904,1904,1904,1932,1932,1937,1937,1937,1896,1896,1891,1891,1891,1947,1947,1880,1880,1880,1894,1894,1892,1892,1892,1921,1921,1935,1935,1935,1892,1892,1961,1961,1961,1929,1929,1932,1932,1932,1907,1907,1895,1895,1895,1888,1888,1901,1901,1954,1954,1954,1910,1910,1901,1901,1901,1931,1931,1954,1954,1954,1904,1904,1954,1954,1954,1908,1908,1935,1935,1935,1954,1954,1943,1943,1943,1894,1894,1951,1951,1951,1902,1902,1908,1908,1908,1890,1890,1963,1963,1963,1951,1951,1951,1951,1951,1931,1931,1891,1891,1891,1957,1957,1946,1946,1946,1935,1935,1955,1955,1955,1954,1954,1941,1941,1941,1946,1946,1884,1884,1884,1931,1931,1957,1957,1957,1966,1966,1900,1900,1900,1973,1973,1917,1917,1917,1912,1912,1955,1955,1955,1946,1946,1943,1943,1943,1941,1941,1916,1916,1916,1898,1898,1893,1893,1893,1902,1902,1881,1881,1881,1954,1954,1893,1893,1893,1936,1936,1890,1890,1890,1886,1886,1918,1918,1918,1943,1943,1899,1899,1899,1942,1942,1904,1904,1904,1910,1910,1877,1877,1877,1900,1900,1873,1873,1873,1858,1858,1919,1919,1919,1859,1859,1894,1894,1894,1887,1887,1900,1900,1900,1935,1935,1904,1904,1904,1870,1870,1881,1881,1881,1905,1905,1914,1914,1914,1921,1921,1897,1897,1897,1886,1886,1932,1932,1932,1901,1901,1891,1891,1891,1916,1916,1927,1927,1927,1906,1906,1907,1907,1907,1957,1957,1981,1981,1926,1926,1926,1940,1940,1972,1972,1972,1950,1950,2024,2024,2024,1989,1989,1971,1971,1971,2011,2011,2006,2006,2006,1994,1994,2011,2011,2011,2079,2079,2058,2058,2058,2091,2091,2083,2083,2083,2104,2104,2087,2087,2087,2061,2061,2087,2087,2087,2081,2081,2072,2072,2072,2084,2084,2100,2100,2100,2104,2104,2092,2092,2092,2112,2112,2123,2123,2123,2143,2143,2114,2114,2114,2181,2181,2117,2117,2117,2142,2142,2133,2133,2133,2157,2157,2149,2149,2149,2144,2144,2196,2196,2196,2206,2206,2210,2210,2210,2196,2196,2215,2215,2215,2201,2201,2184,2184,2184,2222,2222,2177,2177,2177,2157,2157,2176,2176,2176,2201,2201,2156,2156,2156,2164,2164,2213,2213,2213,2201,2201,2158,2158,2158,2189,2189,2181,2181,2181,2191,2191,2166,2166,2166,2166,2166,2209,2209,2209,2217,2217,2201,2201,2201,2214,2214,2151,2151,2151,2181,2181,2197,2197,2197,2209,2209,2148,2148,2148,2205,2205,2191,2191,2191,2161,2161,2206,2206,2206,2143,2143,2191,2191,2191,2135,2135,2154,2154,2154,2187,2187,2199,2199,2199,2147,2147,2198,2198,2198,2131,2131,2171,2171,2144,2144,2144,2107,2107,2109,2109,2109,2156,2156,2179,2179,2179,2147,2147,2169,2169,2169,2135,2135,2126,2126,2126,2111,2111,2096,2096,2096,2122,2122,2148,2148,2148,2103,2103,2110,2110,2110,2130,2130,2090,2090,2090,2079,2079,2142,2142,2142,2099,2099,2157,2157,2157,2151,2151,2146,2146,2146,2141,2141,2081,2081,2081,2094,2094,2097,2097,2097,2134,2134,2147,2147,2147,2139,2139,2076,2076,2076,2064,2064,2129,2129,2129,2087,2087,2125,2125,2125,2133,2133,2134,2134,2134,2095,2095,2082,2082,2082,2097,2097,2110,2110,2110,2077,2077,2073,2073,2073,2057,2057,2113,2113,2113,2091,2091,2054,2054,2054,2111,2111,2088,2088,2088,2051,2051,2059,2059,2059,2051,2051,2047,2047,2047,2057,2057,2090,2090,2090,2046,2046,2076,2076,2076,2029,2029,2076,2076,2076,2052,2052,2091,2091,2091,2023,2023,2074,2074,2074,2018,2018,2017,2017,2017,2025,2025,2055,2055,2055,2012,2012,2013,2013,2013,2038,2038,2055,2055,2055,2021,2021,2036,2036,2036,1999,1999,1991,1991,1991,2060,2060,2048,2048,2048,1993,1993,1992,1992,1992,2003,2003,1982,1982,1982,1979,1979,1978,1978,1969,1969,1969,2003,2003,2040,2040,2040,1991,1991,1995,1995,1995,1967,1967,1985,1985,1985,2028,2028,1970,1970,1970,2001,2001,2019,2019,2019,1952,1952,1963,1963,1963,1945,1945,1983,1983,1983,1962,1962,1962,1962,1962,1975,1975,2008,2008,2008,1981,1981,1996,1996,1996,1969,1969,1938,1938,1938,1973,1973,1951,1951,1951,2011,2011,1996,1996,1996,1954,1954,1985,1985,1985,1944,1944,1996,1996,1996,1971,1971,2006,2006,2006,1963,1963,1942,1942,1942,1939,1939,1945,1945,1945,1987,1987,1941,1941,1941,1961,1961,1995,1995,1995,1987,1987,1942,1942,1942,2002,2002,2006,2006,2006,1942,1942,1943,1943,1943,1967,1967,1946,1946,1946,1996,1996,1998,1998,1998,1966,1966,1962,1962,1962,2000,2000,1971,1971,1971,1935,1935,1987,1987,1987,1984,1984,1962,1962,1962,1952,1952,1987,1987,1987,1959,1959,1926,1926,1926,1939,1939,1937,1937,1937,1935,1935,1929,1929,1929,1976,1976,1931,1931,1931,1994,1994,1927,1927,1927,1958,1958,1962,1962,1962,1991,1991,1944,1944,1944,1919,1919,1920,1920,1920,1976,1976,1982,1982,1982,1932,1932,1992,1992,1929,1929,1929,1975,1975,1922,1922,1922,1987,1987,1988,1988,1988,1978,1978,1995,1995,1995,1984,1984,1937,1937,1937,1974,1974,1909,1909,1909,1974,1974,1983,1983,1983,1973,1973,1909,1909,1909,1954,1954,1907,1907,1907,1964,1964,1917,1917,1917,1893,1893,1929,1929,1929,1895,1895,1901,1901,1901,1895,1895,1961,1961,1961,1943,1943,1923,1923,1923,1953,1953,1922,1922,1922,1955,1955,1924,1924,1924,1919,1919,1962,1962,1962,1909,1909,1940,1940,1940,1905,1905,1951,1951,1951,1978,1978,1918,1918,1918,1965,1965,1936,1936,1936,2001,2001,1956,1956,1956,2007,2007,1950,1950,1950,1967,1967,2019,2019,2019,2019,2019,1990,1990,1990,2037,2037,2036,2036,2036,2063,2063,2050,2050,2050,2012,2012,2028,2028,2028,2055,2055,2059,2059,2059,2042,2042,2098,2098,2098,2063,2063,2106,2106,2106,2128,2128,2111,2111,2111,2078,2078,2119,2119,2119,2087,2087,2151,2151,2151,2129,2129,2169,2169,2169,2144,2144,2163,2163,2163,2174,2174,2188,2188,2188,2141,2141,2128,2128,2128,2165,2165,2165,2165,2165,2188,2188,2196,2196,2196,2191,2191,2205,2205,2141,2141,2141,2201,2201,2145,2145,2145,2200,2200,2188,2188,2188,2169,2169,2217,2217,2217,2183,2183,2154,2154,2154,2212,2212,2152,2152,2152,2142,2142,2155,2155,2155,2149,2149,2159,2159,2159,2214,2214,2157,2157,2157,2183,2183,2202,2202,2202,2147,2147,2186,2186,2186,2141,2141,2203,2203,2203,2143,2143,2159,2159,2159,2141,2141,2136,2136,2136,2146,2146,2166,2166,2166,2162,2162,2164,2164,2164,2155,2155,2173,2173,2173,2162,2162,2129,2129,2129,2121,2121,2093,2093,2093,2166,2166,2110,2110,2110,2150,2150,2113,2113,2113,2141,2141,2135,2135,2135,2085,2085,2122,2122,2122,2152,2152,2085,2085,2085,2144,2144,2088,2088,2088,2116,2116,2139,2139,2139,2071,2071,2112,2112,2112,2066,2066,2123,2123,2123,2085,2085,2122,2122,2122,2124,2124,2095,2095,2095,2127,2127,2107,2107,2107,2090,2090,2123,2123,2123,2135,2135,2073,2073,2073,2062,2062,2083,2083,2083,2096,2096,2113,2113,2113,2052,2052,2087,2087,2087,2087,2087,2075,2075,2075,2105,2105,2108,2108,2108,2069,2069,2078,2078,2078,2052,2052,2060,2060,2060,2072,2072,2045,2045,2045,2032,2032,2070,2070,2071,2071,2071,2101,2101,2083,2083,2083,2048,2048,2069,2069,2069,2096,2096,2068,2068,2068,2091,2091,2043,2043,2043,2092,2092,2038,2038,2038,2079,2079,2050,2050,2050,2021,2021,2088,2088,2088,2055,2055,2023,2023,2023,2010,2010,2010,2010,2010,2023,2023,2054,2054,2054,2062,2062,2014,2014,2014,2029,2029,2057,2057,2057,2001,2001,1993,1993,1993,1987,1987,2033,2033,2033,2042,2042,2028,2028,2028,1992,1992,2028,2028,2028,2018,2018,1985,1985,1985,1972,1972,1974,1974,1974,1974,1974,2025,2025,2025,1998,1998,1965,1965,1965,1993,1993,1996,1996,1996,2032,2032,1982,1982,1982,1967,1967,1971,1971,1971,1966,1966,2010,2010,2010,2004,2004,2007,2007,2007,2023,2023,1973,1973,1973,2020,2020,1964,1964,1964,2007,2007,2006,2006,2006,2006,2006,1977,1977,1977,1963,1963,1996,1996,1996,2009,2009,2001,2001,2001,1943,1943,1955,1955,1955,1947,1947,1973,1973,1973,2008,2008,1959,1959,1959,2015,2015,1975,1975,1975,1944,1944,1948,1948,1948,1942,1942,1951,1951,1951,1957,1957,1961,1961,1961,2008,2008,1971,1971,1971,1935,1935,1938,1938,1935,1935,1935,2001,2001,2005,2005,2005,1969,1969,1992,1992,1992,1961,1961,1932,1932,1932,1946,1946,2007,2007,2007,1978,1978,2001,2001,2001,1966,1966,1977,1977
1769,1797,1797,1797,1792,1792,1783,1783,1783,1760,1760,1780,1780,1780,1778,1778,1800,1800,1800,1763,1763,1796,1796,1796,1797,1797,1755,1755,1755,1786,1786,1767,1767,1767,1763,1763,1763,1763,1763,1793,1793,1784,1784,1784,1802,1802,1785,1785,1785,1785,1785,1777,1777,1777,1814,1814,1808,1808,1808,1795,1795,1819,1819,1819,1792,1792,1791,1791,1791,1770,1770,1795,1795,1795,1793,1793,1808,1808,1808,1816,1816,1797,1797,1797,1794,1794,1801,1801,1801,1799,1799,1821,1821,1821,1821,1821,1798,1798,1798,1816,1816,1805,1805,1805,1803,1803,1786,1786,1786,1828,1828,1787,1787,1787,1826,1826,1829,1829,1829,1810,1810,1807,1807,1807,1801,1801,1815,1815,1815,1842,1842,1839,1839,1839,1814,1814,1820,1820,1820,1852,1852,1823,1823,1823,1825,1825,1803,1803,1803,1832,1832,1812,1812,1812,1837,1837,1801,1801,1801,1826,1826,1827,1827,1827,1823,1823,1820,1820,1820,1799,1799,1809,1809,1809,1831,1831,1814,1814,1814,1831,1831,1835,1835,1835,1802,1802,1826,1826,1826,1830,1830,1847,1847,1847,1832,1832,1810,1810,1832,1832,1832,1813,1813,1810,1810,1810,1845,1845,1853,1853,1853,1820,1820,1799,1799,1799,1846,1846,1815,1815,1815,1856,1856,1834,1834,1834,1846,1846,1815,1815,1815,1827,1827,1833,1833,1833,1815,1815,1807,1807,1807,1829,1829,1840,1840,1840,1816,1816,1812,1812,1812,1822,1822,1812,1812,1812,1814,1814,1827,1827,1827,1783,1783,1839,1839,1839,1800,1800,1803,1803,1803,1822,1822,1807,1807,1807,1805,1805,1824,1824,1824,1829,1829,1856,1856,1856,1841,1841,1848,1848,1848,1832,1832,1840,1840,1840,1845,1845,1893,1893,1893,1877,1877,1889,1889,1889,1878,1878,1916,1916,1916,1913,1913,1924,1924,1924,1965,1965,1985,1985,1985,1978,1978,1991,1991,1991,2008,2008,2044,2044,2044,2043,2043,2060,2060,2060,2091,2091,2085,2085,2085,2114,2114,2140,2140,2140,2143,2143,2171,2171,2171,2182,2182,2193,2193,2193,2211,2211,2210,2210,2210,2202,2202,2220,2220,2220,2219,2219,2239,2239,2239,2251,2251,2264,2264,2264,2257,2257,2278,2278,2278,2271,2271,2286,2286,2286,2307,2307,2299,2299,2299,2313,2313,2321,2321,2321,2339,2339,2307,2307,2325,2325,2325,2334,2334,2355,2355,2355,2346,2346,2344,2344,2344,2348,2348,2366,2366,2366,2360,2360,2361,2361,2361,2374,2374,2361,2361,2361,2352,2352,2349,2349,2349,2379,2379,2386,2386,2386,2370,2370,2393,2393,2393,2377,2377,2357,2357,2357,2356,2356,2395,2395,2395,2383,2383,2372,2372,2372,2391,2391,2363,2363,2363,2356,2356,2357,2357,2357,2360,2360,2370,2370,2370,2387,2387,2367,2367,2367,2362,2362,2351,2351,2351,2357,2357,2355,2355,2355,2364,2364,2330,2330,2330,2371,2371,2346,2346,2346,2328,2328,2340,2340,2340,2328,2328,2326,2326,2326,2325,2325,2310,2310,2310,2324,2324,2322,2322,2322,2291,2291,2298,2298,2298,2311,2311,2309,2309,2309,2293,2293,2280,2280,2280,2254,2254,2292,2292,2292,2255,2255,2269,2269,2269,2243,2243,2233,2233,2233,2231,2231,2236,2236,2236,2217,2217,2223,2223,2223,2235,2235,2205,2205,2205,2190,2190,2190,2190,2190,2204,2204,2160,2160,2160,2193,2193,2155,2155,2155,2184,2184,2167,2167,2167,2155,2155,2145,2145,2145,2166,2166,2163,2163,2163,2150,2150,2151,2151,2151,2153,2153,2133,2133,2133,2148,2148,2110,2110,2119,2119,2119,2109,2109,2143,2143,2143,2116,2116,2100,2100,2100,2100,2100,2115,2115,2115,2113,2113,2107,2107,2107,2103,2103,2084,2084,2084,2124,2124,2071,2071,2071,2064,2064,2071,2071,2071,2063,2063,2096,2096,2096,2094,2094,2056,2056,2056,2073,2073,2062,2062,2062,2057,2057,2076,2076,2076,2045,2045,2064,2064,2064,2056,2056,2051,2051,2051,2060,2060,2024,2024,2024,2049,2049,2011,2011,2011,2037,2037,2011,2011,2011,2028,2028,2004,2004,2004,2032,2032,2004,2004,2004,2007,2007,1986,1986,1986,2005,2005,2015,2015,2015,1986,1986,1978,1978,1978,1981,1981,1985,1985,1985,2006,2006,1979,1979,1979,2006,2006,1982,1982,1982,1956,1956,1971,1971,1971,1988,1988,1973,1973,1973,1984,1984,1968,1968,1968,1961,1961,1961,1961,1961,1973,1973,1980,1980,1980,1962,1962,1945,1945,1945,1973,1973,1968,1968,1968,1935,1935,1939,1939,1939,1967,1967,1955,1955,1955,1961,1961,1979,1979,1979,1961,1961,1955,1955,1955,1948,1948,1965,1965,1965,1934,1934,1947,1947,1947,1959,1959,1948,1948,1948,1952,1952,1949,1949,1949,1967,1967,1953,1953,1946,1946,1946,1980,1980,1965,1965,1965,1933,1933,1965,1965,1965,1966,1966,1949,1949,1949,1961,1961,1954,1954,1954,1923,1923,1926,1926,1926,1932,1932,1963,1963,1963,1901,1901,1949,1949,1949,1931,1931,1917,1917,1917,1902,1902,1889,1889,1889,1931,1931,1940,1940,1940,1914,1914,1927,1927,1927,1903,1903,1917,1917,1917,1914,1914,1884,1884,1884,1882,1882,1877,1877,1877,1882,1882,1876,1876,1876,1875,1875,1883,1883,1883,1902,1902,1857,1857,1857,1883,1883,1857,1857,1857,1860,1860,1861,1861,1861,1844,1844,1858,1858,1858,1870,1870,1837,1837,1837,1843,1843,1833,1833,1833,1858,1858,1824,1824,1824,1825,1825,1837,1837,1837,1870,1870,1850,1850,1850,1862,1862,1828,1828,1828,1843,1843,1844,1844,1844,1863,1863,1829,1829,1829,1860,1860,1840,1840,1840,1841,1841,1842,1842,1842,1823,1823,1850,1850,1850,1843,1843,1851,1851,1851,1849,1849,1815,1815,1815,1852,1852,1847,1847,1847,1824,1824,1824,1824,1824,1833,1833,1821,1821,1821,1806,1806,1834,1834,1834,1803,1803,1810,1810,1810,1810,1810,1795,1795,1795,1815,1815,1815,1815,1797,1797,1797,1803,1803,1809,1809,1809,1825,1825,1843,1843,1843,1843,1843,1798,1798,1798,1817,1817,1834,1834,1834,1803,1803,1837,1837,1837,1804,1804,1783,1783,1783,1828,1828,1794,1794,1794,1817,1817,1790,1790,1790,1819,1819,1819,1819,1819,1811,1811,1799,1799,1799,1792,1792,1784,1784,1784,1795,1795,1814,1814,1814,1835,1835,1818,1818,1818,1808,1808,1827,1827,1827,1826,1826,1801,1801,1801,1840,1840,1814,1814,1814,1816,1816,1826,1826,1826,1824,1824,1813,1813,1813,1845,1845,1812,1812,1812,1839,1839,1814,1814,1814,1835,1835,1817,1817,1817,1811,1811,1829,1829,1829,1809,1809,1829,1829,1829,1827,1827,1847,1847,1847,1815,1815,1807,1807,1807,1807,1807,1825,1825,1825,1799,1799,1821,1821,1821,1820,1820,1807,1807,1807,1836,1836,1816,1816,1816,1820,1820,1838,1838,1838,1829,1829,1822,1822,1822,1851,1851,1828,1828,1828,1822,1822,1820,1820,1820,1841,1841,1837,1837,1837,1862,1862,1828,1828,1828,1859,1859,1837,1837,1837,1851,1851,1840,1840,1840,1826,1826,1851,1851,1851,1818,1818,1826,1826,1826,1818,1818,1852,1852,1852,1834,1834,1818,1818,1824,1824,1824,1826,1826,1823,1823,1823,1846,1846,1844,1844,1844,1824,1824,1847,1847,1847,1861,1861,1861,1861,1861,1868,1868,1872,1872,1872,1919,1919,1918,1918,1918,1936,1936,1956,1956,1956,1967,1967,1968,1968,1968,1958,1958,1984,1984,1984,2030,2030,2010,2010,2010,2039,2039,2067,2067,2067,2069,2069,2105,2105,2105,2121,2121,2138,2138,2138,2118,2118,2130,2130,2130,2165,2165,2182,2182,2182,2190,2190,2221,2221,2221,2200,2200,2211,2211,2211,2272,2272,2249,2249,2249,2292,2292,2270,2270,2270,2287,2287,2303,2303,2303,2313,2313,2298,2298,2298,2286,2286,2303,2303,2303,2316,2316,2327,2327,2327,2309,2309,2356,2356,2356,2325,2325,2357,2357,2357,2344,2344,2365,2365,2365,2348,2348,2341,2341,2341,2346,2346,2371,2371,2371,2339,2339,2362,2362,2362,2392,2392,2375,2375,2375,2356,2356,2386,2386,2386,2382,2382,2353,2353,2353,2371,2371,2368,2368,2368,2362,2362,2359,2359,2359,2345,2345,2351,2351,2351,2345,2345,2350,2350,2350,2339,2339,2339,2339,2339,2340,2340,2339,2339,2339,2339,2339,2371,2371,2371,2347,2347,2365,2365,2322,2322,2322,2322,2322,2310,2310,2310,2332,2332,2331,2331,2331,2336,2336,2338,2338,2338,2318,2318,2333,2333,2333,2301,2301,2333,2333,2333,2338,2338,2333,2333,2333,2304,2304,2311,2311,2311,2302,2302,2290,2290,2290,2326,2326,2278,2278,2278,2294,2294,2299,2299,2299,2295,2295,2276,2276,2276,2290,2290,2254,2254,2254,2260,2260,2286,2286,2286,2262,2262,2255,2255,2255,2273,2273,2265,2265,2265,2259,2259,2239,2239,2239,2233,2233,2236,2236,2236,2217,2217,2218,2218,2218,2203,2203,2217,2217,2217,2230,2230,2212,2212,2212,2205,2205,2208,2208,2208,2178,2178,2184,2184,2184,2193,2193,2188,2188,2188,2214,2214,2192,2192,2192,2195,2195,2183,2183,2183,2200,2200,2181,2181,2181,2206,2206,2214,2214,2214,2177,2177,2164,2164,2164,2182,2182,2143,2143,2143,2171,2171,2163,2163,2163,2153,2153,2155,2155,2155,2165,2165,2158,2158,2158,2165,2165,2150,2150,2150,2149,2149,2148,2148,2148,2127,2127,2138,2138,2138,2143,2143,2140,2140,2140,2122,2122,2147,2147,2147,2115,2115,2107,2107,2107,2133,2133,2114,2114,2114,2103,2103,2105,2105,2097,2097,2097,2087,2087,2118,2118,2118,2107,2107,2091,2091,2091,2103,2103,2091,2091,2091,2074,2074,2053,2053,2053,2067,2067,2080,2080,2080,2051,2051,2035,2035,2035,2057,2057,2068,2068,2068,2027,2027,2033,2033,2033,2037,2037,2037,2037,2037,2002,2002,2008,2008,2008,2037,2037,2002,2002,2002,2016,2016,2004,2004,2004,2000,2000,1998,1998,1998,1976,1976,1999,1999,1999,2012,2012,1995,1995,1995,2001,2001,1960,1960,1960,1998,1998,1989,1989,1989,1972,1972,1953,1953,1953,1963,1963,1966,1966,1966,1960,1960,1931,1931,1931,1970,1970,1974,1974,1974,1944,1944,1965,1965,1965,1935,1935,1970,1970,1970,1930,1930,1927,1927,1927,1939,1939,1949,1949,1949,1929,1929,1955,1955,1955,1930,1930,1935,1935,1935,1941,1941,1911,1911,1911,1938,1938,1939,1939,1939,1940,1940,1911,1911,1911,1950,1950,1927,1927,1927,1939,1939,1910,1910,1910,1923,1923,1936,1936,1936,1911,1911,1917,1917,1917,1925,1925,1918,1918,1918,1939,1939,1916,1916,1916,1912,1912,1952,1952,1952,1937,1937,1920,1920,1920,1948,1948,1929,1929,1929,1939,1939,1938,1938,1938,1916,1916,1904,1904,1912,1912,1912,1924,1924,1949,1949,1949,1931,1931,1929,1929,1929,1946,1946,1920,1920,1920,1938,1938,1946,1946,1946,1939,1939,1914,1914,1914,1921,1921,1904,1904,1904,1923,1923,1904,1904,1904,1919,1919,1926,1926,1926,1926,1926,1917,1917,1917,1928,1928,1936,1936,1936,1920,1920,1918,1918,1918,1939,1939,1940,1940,1940,1938,1938,1952,1952,1952,1920,1920,1913,1913,1913,1929,1929,1932,1932,1932,1943,1943,1921,1921,1921,1955,1955,1920,1920,1920,1924,1924,1947,1947,1947,1930,1930,1889,1889,1889,1895,1895,1923,1923,1923,1935,1935,1904,1904,1904,1912,1912,1918,1918,1918,1924,1924,1924,1924,1924,1899,1899,1907,1907,1907,1911,1911,1887,1887,1887,1902,1902,1884,1884,1884,1905,1905,1891,1891,1891,1875,1875,1861,1861,1861,1863,1863,1854,1854,1854,1893,1893,1891,1891,1891,1860,1860,1854,1854,1854,1876,1876,1869,1869,1869,1864,1864,1868,1868,1868,1891,1891,1882,1882,1882,1867,1867,1848,1848,1848,1858,1858,1865,1865,1865,1864,1864,1854,1854,1854,1852,1852,1882,1882,1882,1880,1880,1857,1857,1857,1843,1843,1868,1868,1875,1875,1875,1880,1880,1865,1865,1865,1872,1872,1886,1886,1886,1891,1891,1884,1884,1884,1886,1886,1883,1883,1883,1855,1855,1858,1858,1858,1860,1860,1899,1899,1899,1873,1873,1850,1850,1850,1892,1892,1877,1877,1877,1862,1862,1882,1882,1882,1869,1869,1886,1886,1886,1880,1880,1879,1879,1879,1858,1858,1864,1864,1864,1866,1866,1879,1879,1879,1864
1905,1905,1911,1911,1911,1897,1897,1903,1903,1903,1912,1912,1889,1889,1889,1877,1877,1879,1879,1879,1894,1894,1897,1897,1897,1894,1894,1878,1878,1878,1870,1870,1870,1870,1870,1876,1876,1862,1862,1862,1869,1869,1873,1873,1873,1885,1885,1856,1856,1856,1893,1893,1887,1887,1887,1872,1872,1868,1868,1868,1850,1850,1855,1855,1855,1892,1892,1887,1887,1887,1846,1846,1873,1873,1873,1841,1841,1832,1832,1832,1852,1852,1872,1872,1872,1851,1851,1848,1848,1848,1855,1855,1858,1858,1858,1892,1892,1844,1844,1844,1854,1854,1879,1879,1879,1857,1857,1843,1843,1843,1835,1835,1822,1822,1822,1820,1820,1830,1830,1830,1822,1822,1849,1849,1849,1853,1853,1829,1829,1829,1818,1818,1820,1820,1820,1855,1855,1828,1828,1828,1846,1846,1851,1851,1851,1862,1862,1867,1867,1867,1880,1880,1841,1841,1841,1875,1875,1840,1840,1840,1885,1885,1890,1890,1890,1875,1875,1884,1884,1884,1877,1877,1880,1880,1880,1878,1878,1904,1904,1904,1917,1917,1913,1913,1913,1947,1947,1969,1969,1969,1953,1953,1981,1981,1990,1990,1990,1970,1970,2012,2012,2012,1999,1999,2044,2044,2044,2054,2054,2037,2037,2037,2024,2024,2073,2073,2073,2092,2092,2090,2090,2090,2096,2096,2121,2121,2121,2103,2103,2135,2135,2135,2125,2125,2159,2159,2159,2127,2127,2140,2140,2140,2187,2187,2172,2172,2172,2191,2191,2178,2178,2178,2186,2186,2199,2199,2199,2195,2195,2195,2195,2195,2209,2209,2223,2223,2223,2223,2223,2228,2228,2228,2244,2244,2227,2227,2227,2228,2228,2259,2259,2259,2257,2257,2233,2233,2233,2240,2240,2224,2224,2224,2259,2259,2261,2261,2261,2257,2257,2243,2243,2243,2235,2235,2256,2256,2256,2259,2259,2284,2284,2284,2272,2272,2231,2231,2231,2249,2249,2265,2265,2265,2249,2249,2251,2251,2251,2276,2276,2259,2259,2259,2263,2263,2236,2236,2236,2247,2247,2250,2250,2250,2244,2244,2249,2249,2249,2223,2223,2244,2244,2244,2246,2246,2227,2227,2227,2248,2248,2247,2247,2247,2238,2238,2227,2227,2227,2221,2221,2215,2215,2215,2219,2219,2209,2209,2209,2226,2226,2192,2192,2192,2230,2230,2215,2215,2215,2208,2208,2187,2187,2187,2204,2204,2190,2190,2194,2194,2194,2192,2192,2200,2200,2200,2175,2175,2179,2179,2179,2172,2172,2203,2203,2203,2154,2154,2154,2154,2154,2160,2160,2162,2162,2162,2170,2170,2174,2174,2174,2156,2156,2153,2153,2153,2132,2132,2143,2143,2143,2108,2108,2124,2124,2124,2125,2125,2134,2134,2134,2117,2117,2092,2092,2092,2093,2093,2081,2081,2081,2109,2109,2090,2090,2090,2060,2060,2088,2088,2088,2075,2075,2084,2084,2084,2061,2061,2078,2078,2078,2046,2046,2036,2036,2036,2033,2033,2040,2040,2040,2045,2045,2033,2033,2033,2029,2029,2045,2045,2045,2016,2016,2011,2011,2011,2011,2011,2006,2006,2006,2034,2034,2029,2029,2029,2023,2023,2012,2012,2012,1998,1998,1991,1991,1991,2001,2001,1999,1999,1999,2016,2016,1975,1975,1975,2009,2009,1994,1994,1994,1988,1988,1975,1975,1975,1993,1993,1982,1982,1982,1979,1979,1960,1960,1960,1957,1957,1977,1977,1977,1961,1961,1982,1982,1982,1959,1959,1952,1952,1952,1968,1968,1939,1939,1939,1960,1960,1951,1951,1951,1985,1985,1976,1976,1976,1984,1984,1957,1957,1957,1938,1938,1929,1929,1929,1959,1959,1959,1959,1959,1960,1960,1949,1949,1929,1929,1929,1918,1918,1941,1941,1941,1923,1923,1905,1905,1905,1906,1906,1898,1898,1898,1903,1903,1899,1899,1899,1917,1917,1893,1893,1893,1948,1948,1905,1905,1905,1935,1935,1889,1889,1889,1891,1891,1899,1899,1899,1922,1922,1894,1894,1894,1929,1929,1891,1891,1891,1897,1897,1913,1913,1913,1922,1922,1877,1877,1877,1888,1888,1923,1923,1923,1868,1868,1897,1897,1897,1893,1893,1892,1892,1892,1895,1895,1903,1903,1903,1888,1888,1875,1875,1875,1874,1874,1899,1899,1899,1891,1891,1882,1882,1882,1893,1893,1888,1888,1888,1849,1849,1873,1873,1873,1852,1852,1871,1871,1871,1871,1871,1850,1850,1850,1850,1850,1867,1867,1867,1868,1868,1872,1872,1872,1885,1885,1861,1861,1861,1853,1853,1875,1875,1875,1881,1881,1856,1856,1856,1861,1861,1875,1875,1875,1863,1863,1848,1848,1848,1830,1830,1864,1864,1864,1863,1863,1842,1842,1842,1830,1830,1847,1847,1847,1861,1861,1846,1846,1846,1831,1831,1869,1869,1869,1862,1862,1856,1856,1856,1829,1829,1817,1817,1817,1827,1827,1852,1852,1852,1862,1862,1850,1850,1850,1824,1824,1829,1829,1858,1858,1858,1843,1843,1838,1838,1838,1812,1812,1840,1840,1840,1857,1857,1815,1815,1815,1852,1852,1816,1816,1816,1826,1826,1834,1834,1834,1811,1811,1843,1843,1843,1833,1833,1809,1809,1809,1822,1822,1829,1829,1829,1838,1838,1828,1828,1828,1815,1815,1822,1822,1822,1820,1820,1820,1820,1820,1830,1830,1837,1837,1837,1815,1815,1813,1813,1813,1804,1804,1814,1814,1814,1837,1837,1798,1798,1798,1833,1833,1830,1830,1830,1832,1832,1835,1835,1835,1819,1819,1807,1807,1807,1823,1823,1801,1801,1801,1801,1801,1803,1803,1803,1794,1794,1788,1788,1788,1801,1801,1821,1821,1821,1824,1824,1798,1798,1798,1782,1782,1811,1811,1811,1795,1795,1802,1802,1802,1789,1789,1797,1797,1797,1816,1816,1807,1807,1807,1801,1801,1809,1809,1809,1791,1791,1790,1790,1790,1778,1778,1799,1799,1799,1787,1787,1808,1808,1808,1816,1816,1775,1775,1775,1781,1781,1774,1774,1774,1781,1781,1762,1762,1762,1796,1796,1788,1788,1788,1783,1783,1793,1793,1793,1795,1795,1808,1808,1808,1779,1779,1764,1764,1764,1775,1775,1779,1779,1779,1796,1796,1779,1779,1801,1801,1801,1772,1772,1764,1764,1764,1779,1779,1767,1767,1767,1780,1780,1790,1790,1790,1766,1766,1776,1776,1776,1754,1754,1782,1782,1782,1759,1759,1778,1778,1778,1787,1787,1747,1747,1747,1771,1771,1762,1762,1762,1768,1768,1768,1768,1768,1773,1773,1779,1779,1779,1779,1779,1791,1791,1791,1761,1761,1782,1782,1782,1761,1761,1769,1769,1769,1788,1788,1795,1795,1795,1793,1793,1777,1777,1777,1784,1784,1818,1818,1818,1820,1820,1841,1841,1841,1838,1838,1819,1819,1819,1845,1845,1878,1878,1878,1905,1905,1879,1879,1879,1890,1890,1916,1916,1916,1890,1890,1934,1934,1934,1962,1962,1941,1941,1941,1942,1942,1964,1964,1964,1982,1982,1990,1990,1990,1989,1989,2008,2008,2008,2037,2037,2043,2043,2043,2041,2041,2045,2045,2045,2078,2078,2065,2065,2065,2093,2093,2112,2112,2112,2078,2078,2087,2087,2087,2120,2120,2127,2127,2127,2106,2106,2107,2107,2107,2134,2134,2129,2129,2129,2137,2137,2161,2161,2161,2146,2146,2187,2187,2187,2172,2172,2172,2172,2172,2176,2176,2186,2186,2186,2175,2175,2187,2187,2187,2186,2186,2205,2205,2205,2186,2186,2204,2204,2185,2185,2185,2198,2198,2211,2211,2211,2210,2210,2208,2208,2208,2239,2239,2214,2214,2214,2219,2219,2227,2227,2227,2205,2205,2207,2207,2207,2206,2206,2217,2217,2217,2218,2218,2203,2203,2203,2196,2196,2206,2206,2206,2214,2214,2208,2208,2208,2227,2227,2224,2224,2224,2218,2218,2201,2201,2201,2222,2222,2209,2209,2209,2188,2188,2202,2202,2202,2190,2190,2202,2202,2202,2196,2196,2183,2183,2183,2189,2189,2186,2186,2186,2190,2190,2218,2218,2218,2203,2203,2179,2179,2179,2185,2185,2186,2186,2186,2170,2170,2175,2175,2175,2162,2162,2170,2170,2170,2146,2146,2191,2191,2191,2173,2173,2133,2133,2133,2133,2133,2162,2162,2162,2163,2163,2143,2143,2143,2146,2146,2144,2144,2144,2103,2103,2113,2113,2113,2136,2136,2123,2123,2123,2109,2109,2085,2085,2085,2116,2116,2073,2073,2073,2082,2082,2064,2064,2064,2080,2080,2075,2075,2075,2058,2058,2079,2079,2079,2065,2065,2084,2084,2084,2075,2075,2050,2050,2050,2048,2048,2024,2024,2024,2056,2056,2028,2028,2028,2018,2018,2013,2013,2013,2034,2034,2041,2041,2041,2038,2038,2019,2019,2004,2004,2004,2023,2023,1986,1986,1986,1976,1976,1986,1986,1986,1977,1977,1983,1983,1983,2002,2002,1975,1975,1975,1972,1972,1978,1978,1978,1967,1967,1977,1977,1977,1988,1988,1938,1938,1938,1982,1982,1937,1937,1937,1960,1960,1951,1951,1951,1937,1937,1946,1946,1946,1949,1949,1927,1927,1927,1916,1916,1909,1909,1909,1940,1940,1902,1902,1902,1914,1914,1915,1915,1915,1907,1907,1903,1903,1903,1892,1892,1937,1937,1937,1894,1894,1903,1903,1903,1902,1902,1920,1920,1920,1898,1898,1890,1890,1890,1871,1871,1895,1895,1895,1871,1871,1894,1894,1894,1863,1863,1886,1886,1886,1854,1854,1858,1858,1858,1862,1862,1847,1847,1847,1868,1868,1856,1856,1856,1888,1888,1884,1884,1884,1862,1862,1868,1868,1868,1844,1844,1869,1869,1869,1828,1828,1871,1871,1871,1838,1838,1869,1869,1869,1871,1871,1846,1846,1846,1827,1827,1862,1862,1862,1872,1872,1866,1866,1866,1855,1855,1837,1837,1837,1839,1839,1819,1819,1819,1838,1838,1839,1839,1839,1822,1822,1823,1823,1823,1848,1848,1819,1819,1819,1819,1819,1831,1831,1831,1820,1820,1810,1810,1837,1837,1837,1814,1814,1813,1813,1813,1801,1801,1819,1819,1819,1843,1843,1796,1796,1796,1831,1831,1819,1819,1819,1817,1817,1839,1839,1839,1809,1809,1795,1795,1795,1813,1813,1815,1815,1815,1790,1790,1823,1823,1823,1813,1813,1813,1813,1813,1777,1777,1782,1782,1782,1790,1790,1822,1822,1822,1791,1791,1809,1809,1809,1810,1810,1779,1779,1779,1808,1808,1802,1802,1802,1802,1802,1795,1795,1795,1801,1801,1763,1763,1763,1808,1808,1793,1793,1793,1767,1767,1758,1758,1758,1788,1788,1749,1749,1749,1745,1745,1772,1772,1772,1794,1794,1762,1762,1762,1771,1771,1781,1781,1781,1765,1765,1767,1767,1767,1769,1769,1744,1744,1744,1745,1745,1789,1789,1789,1751,1751,1748,1748,1748,1742,1742,1747,1747,1747,1745,1745,1751,1751,1751,1777,1777,1749,1749,1749,1768,1768,1746,1746,1746,1779,1779,1769,1769,1769,1778,1778,1734,1734,1734,1765,1765,1764,1764,1764,1766,1766,1765,1765,1765,1750,1750,1728,1728,1728,1755,1755,1773,1773,1773,1786,1786,1771,1771,1771,1768,1768,1771,1771,1771,1736,1736,1741,1741,1741,1761,1761,1773,1773,1773,1762,1762,1759,1759,1772,1772,1772,1731,1731,1748,1748,1748,1774,1774,1742,1742,1742,1756,1756,1734,1734,1734,1772,1772,1746,1746,1746,1753,1753,1734,1734,1734,1761,1761,1737,1737,1737,1787,1787,1788,1788,1788,1744,1744,1751,1751,1751,1780,1780,1780,1780,1780,1777,1777,1780,1780,1780,1788,1788,1759,1759,1759,1773,1773,1800,1800,1800,1768,1768,1776,1776,1776,1784,1784,1764,1764,1764,1772,1772,1763,1763,1763,1782,1782,1754,1754,1754,1776,1776,1749,1749,1749,1792,1792,1780,1780,1780,1757,1757,1774,1774,1774,1785,1785,1771,1771,1771,1798,1798,1748,1748,1748,1779,1779,1757,1757,1757,1773,1773,1765,1765,1765,1752,1752,1761,1761,1761,1753,1753,1753,1753,1753,1771,1771,1793,1793,1793,1764,1764,1762,1762,1762,1799,1799,1800,1800,1800,1764,1764,1764,1764,1764,1802,1802,1804,1804,1804,1770,1770,1796,1796,1796,1835,1835,1785,1785,1785,1827,1827,1820,1820,1820,1813,1813,1847,1847,1847,1834,1834,1858,1858,1858,1868,1868,1868,1868,1868,1862,1862,1871,1871,1871,1894,1894,1925,1925,1925,1906,1906,1957,1957,1957,1960,1960,1980,1980,1967,1967,1967,1968,1968,2004,2004,2004,2038,2038,2026,2026,2026,2023,2023,2060,2060,2060,2041,2041,2067,2067,2067,2096,2096,2111,2111,2111,2107,2107,2113,2113,2113,2135,2135,2155,2155,2155,2160,2160,2146,2146,2146,2182,2182,2182,2182,2182,2178,2178,2193,2193,2193,2187,2187,2212,2212,2212,2193,2193,2212,2212,2212,2229,2229,2220,2220,2220,2234,2234,2240,2240,2240
1957,1957,1957,1967,1967,1959,1959,1959,1936,1936,1937,1937,1937,1938,1938,1953,1953,1953,1945,1945,1946,1946,1946,1942,1942,1960,1960,1960,1964,1964,1973,1973,1973,1951,1951,1967,1967,1967,1943,1943,1971,1971,1971,1969,1969,1963,1963,1963,1932,1932,1966,1966,1958,1958,1958,1963,1963,1950,1950,1950,1926,1926,1938,1938,1938,1939,1939,1975,1975,1975,1923,1923,1939,1939,1939,1939,1939,1970,1970,1970,1972,1972,1921,1921,1921,1956,1956,1939,1939,1939,1945,1945,1955,1955,1955,1940,1940,1924,1924,1924,1955,1955,1962,1962,1962,1929,1929,1974,1974,1974,1947,1947,1940,1940,1940,1961,1961,1968,1968,1968,1956,1956,1989,1989,1989,1975,1975,1987,1987,1987,2019,2019,1986,1986,1986,1993,1993,2023,2023,2023,2045,2045,2044,2044,2044,2055,2055,2045,2045,2045,2052,2052,2072,2072,2072,2061,2061,2092,2092,2092,2103,2103,2092,2092,2092,2092,2092,2102,2102,2102,2135,2135,2141,2141,2141,2123,2123,2116,2116,2116,2130,2130,2134,2134,2134,2154,2154,2158,2158,2158,2160,2160,2139,2139,2139,2163,2163,2186,2186,2186,2183,2183,2194,2194,2194,2190,2190,2158,2158,2158,2201,2201,2166,2166,2166,2188,2188,2159,2159,2159,2160,2160,2196,2196,2196,2180,2180,2159,2159,2159,2190,2190,2177,2177,2177,2150,2150,2167,2167,2167,2168,2168,2144,2144,2144,2183,2183,2180,2180,2180,2174,2174,2153,2153,2166,2166,2166,2126,2126,2143,2143,2143,2138,2138,2131,2131,2131,2162,2162,2126,2126,2126,2116,2116,2141,2141,2141,2110,2110,2109,2109,2109,2130,2130,2140,2140,2140,2114,2114,2126,2126,2126,2089,2089,2108,2108,2108,2086,2086,2109,2109,2109,2108,2108,2115,2115,2115,2116,2116,2084,2084,2084,2114,2114,2072,2072,2072,2098,2098,2094,2094,2094,2090,2090,2055,2055,2055,2039,2039,2066,2066,2066,2059,2059,2045,2045,2045,2065,2065,2064,2064,2064,2028,2028,2023,2023,2023,2018,2018,2062,2062,2062,2050,2050,2020,2020,2020,2048,2048,2007,2007,2007,2014,2014,2035,2035,2035,2030,2030,2040,2040,2040,2031,2031,2042,2042,2042,2023,2023,1996,1996,1996,2021,2021,2022,2022,2022,2013,2013,2000,2000,2000,1996,1996,1978,1978,1978,2005,2005,1984,1984,1984,1997,1997,2025,2025,2025,1999,1999,2043,2043,2043,2031,2031,2029,2029,2029,2004,2004,2007,2007,2007,2000,2000,2016,2016,2016,1983,1983,2035,2035,2035,1991,1991,1992,1992,1992,2017,2017,2016,2016,2016,1987,1987,2008,2008,2008,2003,2003,2017,2017,2017,1995,1995,1994,1994,1994,1972,1972,1998,1998,1980,1980,1980,1993,1993,1987,1987,1987,2023,2023,1997,1997,1997,2019,2019,1998,1998,1998,1991,1991,2006,2006,2006,2018,2018,1985,1985,1985,2013,2013,2014,2014,2014,1987,1987,1971,1971,1971,1969,1969,1988,1988,1988,2015,2015,1998,1998,1998,2001,2001,1991,1991,1991,1982,1982,1975,1975,1975,1971,1971,1989,1989,1989,2009,2009,1968,1968,1968,1996,1996,1962,1962,1962,1972,1972,1958,1958,1958,1949,1949,1956,1956,1956,1962,1962,1977,1977,1977,1948,1948,1969,1969,1969,1959,1959,1951,1951,1951,1984,1984,1936,1936,1936,1964,1964,1953,1953,1953,1982,1982,1935,1935,1935,1979,1979,1942,1942,1942,1966,1966,1950,1950,1950,1957,1957,1946,1946,1946,1977,1977,1962,1962,1962,1967,1967,1962,1962,1962,1965,1965,1985,1985,1985,1966,1966,1935,1935,1935,1932,1932,1966,1966,1966,1928,1928,1938,1938,1938,1940,1940,1953,1953,1953,1960,1960,1947,1947,1947,1970,1970,1924,1924,1924,1925,1925,1928,1928,1928,1954,1954,1956,1956,1956,1955,1955,1926,1926,1926,1935,1935,1933,1933,1933,1960,1960,1941,1941,1941,1918,1918,1963,1963,1957,1957,1957,1955,1955,1959,1959,1959,1948,1948,1963,1963,1963,1950,1950,1925,1925,1925,1957,1957,1950,1950,1950,1967,1967,1956,1956,1956,1929,1929,1932,1932,1932,1964,1964,1948,1948,1948,1947,1947,1935,1935,1935,1933,1933,1946,1946,1946,1935,1935,1940,1940,1940,1954,1954,1946,1946,1946,1949,1949,1961,1961,1961,1957,1957,1948,1948,1948,1969,1969,1938,1938,1938,1936,1936,1943,1943,1943,1944,1944,1958,1958,1958,1973,1973,1961,1961,1961,1971,1971,1934,1934,1934,1981,1981,1972,1972,1972,1971,1971,1969,1969,1969,1937,1937,1943,1943,1943,1974,1974,1954,1954,1954,1946,1946,1991,1991,1991,1942,1942,1937,1937,1937,1943,1943,1988,1988,1988,1975,1975,1970,1970,1970,1945,1945,1973,1973,1973,1954,1954,2003,2003,2003,1990,1990,1958,1958,1958,1984,1984,1975,1975,1975,1969,1969,1985,1985,1985,1980,1980,1981,1981,1981,2027,2027,2030,2030,2030,2041,2041,2042,2042,2042,2023,2023,2059,2059,2059,2030,2030,2079,2079,2079,2076,2076,2082,2082,2082,2102,2102,2069,2069,2069,2113,2113,2109,2109,2109,2115,2115,2136,2136,2118,2118,2118,2153,2153,2138,2138,2138,2153,2153,2151,2151,2151,2197,2197,2176,2176,2176,2198,2198,2204,2204,2204,2222,2222,2207,2207,2207,2190,2190,2233,2233,2233,2224,2224,2237,2237,2237,2216,2216,2206,2206,2206,2220,2220,2220,2220,2220,2206,2206,2250,2250,2250,2241,2241,2249,2249,2249,2243,2243,2232,2232,2232,2253,2253,2208,2208,2208,2235,2235,2251,2251,2251,2225,2225,2194,2194,2194,2223,2223,2235,2235,2235,2207,2207,2208,2208,2208,2207,2207,2212,2212,2212,2216,2216,2216,2216,2216,2204,2204,2172,2172,2172,2174,2174,2163,2163,2163,2209,2209,2207,2207,2207,2161,2161,2194,2194,2194,2155,2155,2177,2177,2177,2161,2161,2182,2182,2182,2160,2160,2163,2163,2163,2136,2136,2135,2135,2135,2151,2151,2139,2139,2139,2156,2156,2168,2168,2168,2160,2160,2129,2129,2129,2139,2139,2108,2108,2108,2138,2138,2127,2127,2127,2140,2140,2122,2122,2122,2116,2116,2110,2110,2110,2133,2133,2083,2083,2083,2079,2079,2079,2079,2079,2090,2090,2069,2069,2069,2102,2102,2111,2111,2111,2097,2097,2103,2103,2103,2054,2054,2074,2074,2074,2085,2085,2083,2083,2065,2065,2065,2054,2054,2052,2052,2052,2052,2052,2067,2067,2067,2067,2067,2082,2082,2082,2098,2098,2074,2074,2074,2068,2068,2080,2080,2080,2056,2056,2089,2089,2089,2095,2095,2099,2099,2099,2078,2078,2087,2087,2087,2073,2073,2042,2042,2042,2085,2085,2066,2066,2066,2079,2079,2064,2064,2064,2049,2049,2082,2082,2082,2051,2051,2065,2065,2065,2082,2082,2053,2053,2053,2063,2063,2074,2074,2074,2067,2067,2075,2075,2075,2074,2074,2036,2036,2036,2072,2072,2048,2048,2048,2059,2059,2063,2063,2063,2044,2044,2076,2076,2076,2035,2035,2056,2056,2056,2059,2059,2043,2043,2043,2039,2039,2076,2076,2076,2032,2032,2079,2079,2079,2040,2040,2067,2067,2067,2036,2036,2053,2053,2053,2020,2020,2051,2051,2051,2036,2036,2023,2023,2023,2035,2035,2044,2044,2044,2055,2055,2012,2012,2012,2025,2025,2021,2021,2021,2007,2007,2050,2050,2050,2025,2025,2052,2052,2052,2045,2045,1999,1999,1999,2019,2019,2020,2020,2020,2032,2032,1988,1988,1988,2034,2034,1993,1993,1993,1995,1995,2008,2008,2008,1993,1993,2020,2020,2020,1991,1991,2025,2025,2008,2008,2008,2023,2023,2002,2002,2002,2009,2009,2026,2026,2026,1978,1978,1988,1988,1988,2006,2006,2017,2017,2017,2000,2000,2013,2013,2013,2011,2011,1994,1994,1994,1968,1968,2006,2006,2006,2016,2016,1980,1980,1980,1967,1967,1971,1971,1971,1969,1969,1995,1995,1995,1965,1965,1969,1969,1969,2006,2006,1965,1965,1965,1981,1981,1989,1989,1989,1964,1964,2010,2010,2010,1982,1982,1964,1964,1964,1966,1966,1992,1992,1992,1973,1973,1955,1955,1955,1965,1965,2009,2009,2009,1996,1996,1987,1987,1987,1951,1951,1964,1964,1964,1983,1983,1957,1957,1957,1982,1982,1989,1989,1989,1973,1973,1967,1967,1967,1988,1988,1967,1967,1967,1960,1960,1990,1990,1990,2006,2006,2000,2000,2000,1964,1964,1976,1976,1976,1950,1950,1963,1963,1963,1983,1983,1959,1959,1959,1988,1988,1939,1939,1939,1975,1975,1986,1986,1986,1937,1937,1959,1959,1959,1947,1947,1972,1972,1972,1971,1971,1940,1940,1940,1950,1950,1964,1964,1964,1986,1986,1971,1971,1971,1982,1982,1959,1959,1959,1950,1950,1941,1941,1941,1984,1984,1980,1980,1980,1935,1935,1931,1931,1931,1952,1952,1946,1946,1944,1944,1944,1933,1933,1975,1975,1975,1924,1924,1935,1935,1935,1958,1958,1950,1950,1950,1947,1947,1952,1952,1952,1968,1968,1945,1945,1945,1971,1971,1961,1961,1961,1960,1960,1978,1978,1978,1936,1936,1938,1938,1938,1945,1945,1974,1974,1974,1982,1982,1951,1951,1951,1964,1964,2014,2014,2014,2013,2013,1993,1993,1993,2018,2018,2014,2014,2014,2051,2051,2015,2015,2015,2067,2067,2041,2041,2041,2061,2061,2062,2062,2062,2103,2103,2102,2102,2102,2117,2117,2076,2076,2076,2080,2080,2137,2137,2137,2148,2148,2128,2128,2128,2144,2144,2127,2127,2127,2145,2145,2138,2138,2138,2147,2147,2138,2138,2138,2133,2133,2151,2151,2151,2165,2165,2165,2165,2165,2162,2162,2183,2183,2183,2154,2154,2183,2183,2183,2177,2177,2190,2190,2190,2172,2172,2195,2195,2195,2167,2167,2163,2163,2163,2155,2155,2161,2161,2161,2180,2180,2160,2160,2160,2136,2136,2158,2158,2158,2145,2145,2184,2184,2184,2133,2133,2158,2158,2158,2115,2115,2129,2129,2129,2131,2131,2110,2110,2110,2151,2151,2106,2106,2106,2138,2138,2136,2136,2136,2129,2129,2127,2127,2099,2099,2099,2103,2103,2085,2085,2085,2107,2107,2073,2073,2073,2071,2071,2078,2078,2078,2081,2081,2065,2065,2065,2061,2061,2098,2098,2098,2096,2096,2049,2049,2049,2051,2051,2075,2075,2075,2047,2047,2052,2052,2052,2059,2059,2031,2031,2031,2026,2026,2060,2060,2060,2015,2015,2031,2031,2031,2052,2052,2053,2053,2053,2020,2020,2013,2013,2013,2053,2053,2038,2038,2038,2003,2003,1989,1989,1989,2016,2016,2042,2042,2042,2028,2028,1985,1985,1985,2024,2024,2008,2008,2008,2027,2027,1979,1979,1979,2024,2024,1987,1987,1987,2022,2022,1999,1999,1999,1989,1989,1991,1991,1991,2013,2013,1993,1993,1993,1995,1995,1992,1992,1992,1991,1991,1976,1976,1976,2008,2008,1999,1999,1999,1997,1997,2020,2020,2020,1975,1975,2007,2007,2007,1989,1989,2004,2004,2004,2021,2021,2020,2020,2020,1975,1975,1985,1985,1985,1997,1997,2001,2001,2001,1984,1984,1986,1986,1986,1996,1996,2001,2001,2001,2038,2038,2029,2029,2029,1997,1997,1995,1995,1995,2028,2028,1983,1983,1983,2008,2008,2012,2012,2012,2007,2007,2013,2013,2013,1985,1985,2032,2032,2016,2016,2016,1995,1995,1975,1975,1975,2029,2029,1975,1975,1975,1988,1988,2011,2011,2011,2005,2005,1985,1985,1985,1975,1975,2008,2008,2008,2005,2005,2007,2007,2007,1969,1969,2000,2000,2000,1965,1965,2005,2005,2005,1964,1964,1972,1972,1972,2005,2005,1996,1996,1996,1995,1995,1982,1982,1982,2012,2012,1990,1990,1990,1951,1951,1967,1967,1967,1992,1992,1994,1994,1994,1990,1990,1971,1971,1971,1978,1978,2012,2012,2012,1947,1947,1948,1948,1948,2003,2003,1948,1948,1948,1993,1993,1957,1957,1957,1969,1969,1983,1983,1983,1982,1982,1958,1958,1958,1990,1990,1978,1978,1978,1953,1953,1957,1957,1957,1960,1960,1984,1984,1984,1972,1972,1954,1954,1954,1940,1940,1947,1947,1947,1940,1940,1968,1968,1968,1963,1963,1971,1971,1971,1972,1972,1937,1937,1937,1938,1938,1987,1987,1987,1936,1936,1960,1960,1960,1975,1975,1967,1967,1967,1968,1968,1958,1958,1958,1967,1967,1975,1975,1975,1961,1961,1964,1964,1964,1967,1967,1951,1951,1951,1958,1958,1941,1941,1941,1931,1931,1944,1944,1944,1944,1944,1954,1954,1954,1961,1961,1969,1969,1969,1971,1971,1934,1934,1937,1937,1937,1948,1948,1968,1968,1968
